Date and Time:                Fri Apr 13 12:45:49.841 2018
Software Version:             4.30.30034.0
Temperature (C):              -30
Model:                        DH334T-18U-03
Data Type:                    Counts
Acquisition Mode:             Accumulate
Trigger Mode:                 Internal
Exposure Time (secs):         2
Accumulate Cycle Time (secs): 2
Frequency (Hz):               0.5
Number of Accumulations:      10
Readout Mode:                 Full Vertical Binning
Horizontal binning:           1
Extended Dynamic Range:       off
Horizontally flipped:         true
Vertical Shift Speed (usecs): 6.5
Pixel Readout Rate (MHz):     0.05
Clock Amplitude:              Normal
Serial Number:                5999
Pre-Amplifier Gain:           1.000000
Intelligate:                  off
Insertion delay:              normal
Gain level:                   500
Integrate on chip:            off
PIV Mode:                     off
Gate Mode:                    Fire only
Gate Width (nsecs):           0
Gate Delay (nsecs):           0
Spurious Noise Filter Mode:   No Filter
Photon counted:               false
Data Averaging Filter Mode:   No Filter
SR750:
Serial Number:                SR-1311
Wavelength (nm):              624.97
Grating Groove Density (l/mm):1199.66
Grating Blaze:                500
Output Flipper Port:          Direct
Accessory Output Port 1:      Off
Accessory Output Port 2:      Off
Accessory Output Port 3:      Off
Accessory Input Port:         On



400	4.37281
400.05939	7730.83
400.11877	7778.78
400.17816	7854.12
400.23758	7904.47
400.29697	7907.42
400.35635	7873.97
400.41574	7833.79
400.47513	7802.33
400.53452	7777.26
400.5939	7762.82
400.65329	7770.19
400.71268	7796.2
400.77206	7819.88
400.83148	7821.27
400.89087	7797.23
400.95026	7759.6
401.00964	7725.65
401.06903	7711.89
401.12842	7727.67
401.18781	7766.73
401.24719	7809
401.30658	7835.66
401.36597	7839.96
401.42538	7823.91
401.48477	7796.29
401.54416	7778.09
401.60355	7795.65
401.66293	7853.51
401.72232	7918.67
401.78171	7952
401.84109	7945.13
401.90048	7910.2
401.95987	7868.64
402.01929	7855.27
402.07867	7886.7
402.13806	7934.53
402.19745	7965.93
402.25684	7983.73
402.31622	7998.4
402.37561	8004.05
402.435	8003.98
402.49438	8015.54
402.55377	8041.39
402.61319	8063.74
402.67258	8068.22
402.73196	8054.75
402.79135	8027.22
402.85074	7991.47
402.91013	7960.13
402.96951	7943.41
403.0289	7941.08
403.08829	7954.36
403.14767	7985
403.20709	8009.76
403.26648	7996.7
403.32587	7954.57
403.38525	7926.76
403.44464	7931.14
403.50403	7942.9
403.56342	7942.85
403.6228	7949.14
403.68219	7987.56
403.74158	8053.09
403.80099	8114.79
403.86038	8143.96
403.91977	8133.41
403.97916	8096.42
404.03854	8053.82
404.09793	8033.1
404.15732	8061.4
404.21671	8134.62
404.27609	8214.81
404.33548	8287.77
404.3949	8398.23
404.45428	8574.68
404.51367	8745.58
404.57306	8799.08
404.63245	8717.27
404.69183	8576.89
404.75122	8432.21
404.81061	8293.34
404.87	8180.75
404.92938	8128.21
404.9888	8147.89
405.04819	8207.5
405.10757	8250.39
405.16696	8247.89
405.22635	8221.25
405.28574	8209.66
405.34512	8234.2
405.40451	8291.49
405.4639	8358.88
405.52328	8408.86
405.5827	8435.01
405.64209	8447.77
405.70148	8442.39
405.76086	8412.22
405.82025	8385.09
405.87964	8395.46
405.93903	8444.65
405.99841	8520.94
406.0578	8612.84
406.11719	8694.69
406.17661	8753.79
406.23599	8809.57
406.29538	8854.97
406.35477	8856.2
406.41415	8817.8
406.47354	8763.7
406.53293	8706.93
406.59232	8680.82
406.6517	8717.19
406.71109	8800.25
406.77051	8884.26
406.8299	8924.03
406.88928	8908.81
406.94867	8901.35
407.00806	8969.3
407.06744	9080.1
407.12683	9161.73
407.18622	9199.71
407.24561	9199.49
407.30499	9148.99
407.36441	9090.41
407.4238	9118.54
407.48318	9245.22
407.54257	9362.89
407.60196	9364.66
407.66135	9247.05
407.72073	9114.81
407.78012	9088.56
407.83951	9181.03
407.8989	9286.02
407.95831	9293.45
408.0177	9196.17
408.07709	9082.39
408.13647	9032.88
408.19586	9052.3
408.25525	9102.54
408.31464	9156.19
408.37402	9204.17
408.43341	9240.12
408.4928	9244.29
408.55222	9210.42
408.6116	9192.12
408.67099	9240.74
408.73038	9315.87
408.78976	9339.96
408.84915	9310.31
408.90854	9307.64
408.96793	9372.67
409.02731	9428.02
409.0867	9397.5
409.14612	9335.92
409.20551	9354.42
409.26489	9443.75
409.32428	9493.95
409.38367	9489.6
409.44305	9514.12
409.50244	9584.42
409.56183	9626.03
409.62122	9612.47
409.6806	9613.92
409.74002	9669.47
409.79941	9718.09
409.8588	9710.79
409.91818	9686.88
409.97757	9691.63
410.03696	9716.13
410.09634	9746.01
410.15573	9780
410.21512	9795.58
410.27451	9782.47
410.33392	9774.14
410.39331	9778.13
410.4527	9766.78
410.51208	9758.47
410.57147	9783.79
410.63086	9814.43
410.69025	9839.67
410.74963	9895.83
410.80902	9951.13
410.86841	9952.39
410.92783	9960.74
410.98721	10024.4
411.0466	10070.3
411.10599	10066.4
411.16537	10071.2
411.22476	10098.3
411.28415	10114.9
411.34354	10115.6
411.40292	10112.9
411.46231	10124.4
411.52173	10166.7
411.58112	10217
411.6405	10243.7
411.69989	10263.5
411.75928	10305.9
411.81866	10364.9
411.87805	10428.1
411.93744	10490.1
411.99683	10524.1
412.05621	10502.7
412.11563	10432.1
412.17502	10338
412.23441	10253.3
412.29379	10187.7
412.35318	10072.3
412.41257	9817.42
412.47195	9446.4
412.53134	9057.17
412.59073	8715.42
412.65012	8456.13
412.70953	8293.59
412.76892	8208.32
412.82831	8162.49
412.8877	8126.62
412.94708	8096.89
413.00647	8095.13
413.06586	8142.36
413.12524	8232.36
413.18463	8326.2
413.24402	8372.55
413.30344	8347.92
413.36282	8273.86
413.42221	8189.34
413.4816	8123.95
413.54099	8091.52
413.60037	8087.87
413.65976	8096.69
413.71915	8102.59
413.77853	8098.08
413.83792	8089.02
413.89734	8089.24
413.95673	8097.43
414.01611	8093.99
414.0755	8069.84
414.13489	8042.15
414.19427	8033.17
414.25366	8048.49
414.31305	8079.26
414.37244	8109.46
414.43182	8124.92
414.49124	8128.31
414.55063	8130.76
414.61002	8130.82
414.6694	8126.08
414.72879	8125.42
414.78818	8128.74
414.84756	8121.25
414.90695	8097.33
414.96634	8070.53
415.02573	8060.17
415.08514	8075.87
415.14453	8111.31
415.20392	8151.48
415.26331	8184.85
415.32269	8204.76
415.38208	8212.6
415.44147	8224.91
415.50085	8259.09
415.56024	8318.51
415.61963	8388.88
415.67905	8429.46
415.73843	8402.59
415.79782	8326.25
415.85721	8249.38
415.9166	8198.29
415.97598	8180.12
416.03537	8193.78
416.09476	8227.4
416.15414	8265.15
416.21353	8293.07
416.27295	8308.34
416.33234	8320.83
416.39172	8334.97
416.45111	8340.22
416.5105	8323.34
416.56989	8285.03
416.62927	8243.03
416.68866	8218.23
416.74805	8217.6
416.80743	8234.45
416.86685	8263.76
416.92624	8308.37
416.98563	8370.73
417.04501	8443.56
417.1044	8504.81
417.16379	8526.31
417.22318	8500.25
417.28256	8448
417.34195	8397.19
417.40134	8372.45
417.46075	8395.25
417.52014	8460.22
417.57953	8537.85
417.63892	8614.58
417.6983	8689.22
417.75769	8733.79
417.81708	8712.94
417.87646	8644.09
417.93585	8590.91
417.99524	8588.87
418.05466	8614.02
418.11404	8633.15
418.17343	8646.08
418.23282	8660.2
418.29221	8668.25
418.35159	8671.96
418.41098	8682.21
418.47037	8703.28
418.52975	8743.43
418.58914	8787.43
418.64856	8794.44
418.70795	8769.59
418.76733	8759.92
418.82672	8798.66
418.88611	8892.05
418.9455	9018.02
419.00488	9115.71
419.06427	9121.54
419.12366	9041.38
419.18304	8946.43
419.24246	8889.9
419.30185	8869.11
419.36124	8859.17
419.42062	8842.49
419.48001	8809.7
419.5394	8763.17
419.59879	8716.37
419.65817	8677.88
419.71756	8655.62
419.77695	8667.65
419.83636	8719.69
419.89575	8783.9
419.95514	8819.14
420.01453	8809.51
420.07391	8773.35
420.1333	8735.95
420.19269	8706.96
420.25208	8683.85
420.31146	8667.89
420.37085	8673.77
420.43027	8717.52
420.48965	8790.79
420.54904	8855.6
420.60843	8879.79
420.66782	8876.7
420.7272	8888.07
420.78659	8934.36
420.84598	9005.79
420.90536	9071.56
420.96475	9087.14
421.02417	9037.02
421.08356	8971.05
421.14294	8962.22
421.20233	9027.24
421.26172	9090.65
421.32111	9045.92
421.38049	8880.25
421.43988	8693.06
421.49927	8573.75
421.55865	8533.57
421.61807	8539.33
421.67746	8549.5
421.73685	8541.39
421.79623	8525.05
421.85562	8514.67
421.91501	8509.47
421.9744	8507.12
422.03378	8512.03
422.09317	8526.1
422.15256	8542.78
422.21198	8554.96
422.27136	8563.67
422.33075	8574.19
422.39014	8584.16
422.44952	8581.9
422.50891	8561.67
422.5683	8536.68
422.62769	8529.54
422.68707	8544.68
422.74646	8558.41
422.80588	8546.97
422.86526	8515.55
422.92465	8487.21
422.98404	8473.83
423.04343	8472.84
423.10281	8475.35
423.1622	8466.99
423.22159	8443.07
423.28098	8423.41
423.34036	8430.48
423.39978	8459.64
423.45917	8486.08
423.51855	8492.29
423.57794	8475.15
423.63733	8435.4
423.69672	8380.61
423.7561	8329.95
423.81549	8295.24
423.87488	8271.5
423.93427	8254.09
423.99368	8246.32
424.05307	8251.23
424.11246	8265.96
424.17184	8281.68
424.23123	8287
424.29062	8272.05
424.35001	8235.1
424.40939	8191.86
424.46878	8166.96
424.52817	8170.52
424.58759	8192.18
424.64697	8218.87
424.70636	8246.99
424.76575	8270.47
424.82513	8279.26
424.88452	8280.6
424.94391	8294.25
425.0033	8326.2
425.06268	8359.4
425.12207	8373.17
425.18149	8368.65
425.24088	8373.82
425.30026	8418.34
425.35965	8493.02
425.41904	8542.7
425.47842	8515.43
425.53781	8420.95
425.5972	8323.31
425.65659	8275.29
425.71597	8282.75
425.77539	8326.96
425.83478	8384.55
425.89417	8424.23
425.95355	8425.64
426.01294	8401.53
426.07233	8374.21
426.13171	8351.45
426.1911	8335.16
426.25049	8327.38
426.30988	8328.97
426.36929	8344.75
426.42868	8383.69
426.48807	8460.86
426.54745	8623
426.60684	8938.69
426.66623	9365.32
426.72562	9656.42
426.785	9576.3
426.84439	9197.61
426.90378	8806.32
426.9632	8587.64
427.02258	8530.82
427.08197	8539.88
427.14136	8537.9
427.20074	8503.33
427.26013	8469.15
427.31952	8479.51
427.37891	8536.67
427.43829	8605.92
427.49768	8651.42
427.5571	8651.06
427.61649	8602.67
427.67587	8519.69
427.73526	8432.09
427.79465	8383.09
427.85403	8385.02
427.91342	8408.02
427.97281	8424.22
428.0322	8431.64
428.09158	8431.96
428.151	8417.36
428.21039	8381.69
428.26978	8335.98
428.32916	8309.45
428.38855	8327.56
428.44794	8385.37
428.50732	8447.56
428.56671	8478.46
428.6261	8473.23
428.68549	8455.28
428.7449	8451.42
428.80429	8480.13
428.86368	8547.49
428.92307	8632.26
428.98245	8690.37
429.04184	8695.66
429.10123	8667.61
429.16061	8644.77
429.22	8638.31
429.27939	8631.46
429.33881	8623.08
429.39819	8640.05
429.45758	8696.4
429.51697	8767.84
429.57635	8819.95
429.63574	8843.7
429.69513	8845.53
429.75452	8822.57
429.8139	8783.01
429.87329	8769.82
429.93271	8815.84
429.9921	8893.78
430.05148	8944.44
430.11087	8945.78
430.17026	8932.52
430.22964	8947.7
430.28903	9000.56
430.34842	9070.4
430.40781	9123.45
430.46719	9133.84
430.52661	9113.37
430.586	9113.29
430.64539	9174.17
430.70477	9277.38
430.76416	9363.48
430.82355	9393.67
430.88293	9380.3
430.94232	9351.6
431.00171	9299.42
431.0611	9236.57
431.12051	9237.45
431.1799	9306.35
431.23929	9358.48
431.29868	9357.25
431.35806	9313.24
431.41745	9224.13
431.47684	9108.49
431.53622	9025.23
431.59561	9019.84
431.655	9082.85
431.71442	9163.9
431.7738	9204.33
431.83319	9169.39
431.89258	9080.43
431.95197	9007.34
432.01135	9000.08
432.07074	9051.58
432.13013	9139.73
432.18951	9240.05
432.2489	9296.59
432.30832	9267.37
432.36771	9186.34
432.42709	9122.32
432.48648	9111.66
432.54587	9157.53
432.60526	9234.92
432.66464	9282.21
432.72403	9266.3
432.78342	9238.92
432.8428	9252.84
432.90222	9297.8
432.96161	9357.33
433.021	9407.88
433.08038	9391.32
433.13977	9303.54
433.19916	9223.63
433.25854	9202.48
433.31793	9223.8
433.37732	9261.75
433.43671	9298.01
433.49612	9320.62
433.55551	9338.53
433.6149	9368.6
433.67429	9416.82
433.73367	9477.4
433.79306	9534.31
433.85245	9589.39
433.91183	9690.02
433.97122	9874.43
434.03061	10091
434.09003	10218.5
434.14941	10173.1
434.2088	9984.41
434.26819	9761.15
434.32758	9602.91
434.38696	9549.85
434.44635	9582.39
434.50574	9617.28
434.56512	9571.59
434.62451	9476.69
434.68393	9452.71
434.74332	9583.64
434.8027	9815.25
434.86209	9971.62
434.92148	9951.5
434.98087	9845.42
435.04025	9810.37
435.09964	9904.48
435.15903	10001.8
435.21841	9932.13
435.27783	9710.55
435.33722	9538.95
435.39661	9570.72
435.45599	9740.64
435.51538	9863.29
435.57477	9889
435.63416	10005.2
435.69354	10440
435.75293	11135.4
435.81232	11656.7
435.87173	11594.7
435.93112	11049.8
435.99051	10473.8
436.0499	10111.6
436.10928	9900.16
436.16867	9778.82
436.22806	9777.3
436.28745	9854.33
436.34683	9885.4
436.40622	9825.42
436.46564	9761.24
436.52502	9785.35
436.58441	9874.62
436.6438	9924.44
436.70319	9910.68
436.76257	9945
436.82196	10053.1
436.88135	10067.1
436.94073	9926.18
437.00012	9822.12
437.05954	9857.01
437.11893	9901.02
437.17831	9892.41
437.2377	9930.24
437.29709	10036.7
437.35648	10106.1
437.41586	10092.6
437.47525	10033.6
437.53464	9948.65
437.59402	9860.69
437.65344	9819.68
437.71283	9844.98
437.77222	9902.4
437.8316	9950.28
437.89099	9969.27
437.95038	9945.46
438.00977	9860.59
438.06915	9720.62
438.12854	9578.8
438.18793	9507.51
438.24734	9540.35
438.30673	9641.13
438.36612	9744.05
438.42551	9812.74
438.48489	9825.7
438.54428	9762.03
438.60367	9639.41
438.66306	9503.72
438.72244	9389.88
438.78183	9313.37
438.84125	9280.71
438.90063	9304.49
438.96002	9388.31
439.01941	9494.99
439.0788	9563.38
439.13818	9559.61
439.19757	9470.74
439.25696	9279.54
439.31635	9004.54
439.37573	8728.73
439.43515	8546.18
439.49454	8501.57
439.55392	8580.22
439.61331	8718.55
439.6727	8827.41
439.73209	8844.89
439.79147	8772.03
439.85086	8656.34
439.91025	8555.95
439.96964	8510.24
440.02905	8528.37
440.08844	8595.96
440.14783	8675.38
440.20721	8713.36
440.2666	8679.9
440.32599	8599.71
440.38538	8531.92
440.44476	8522.01
440.50415	8576.15
440.56354	8664.99
440.62296	8750.25
440.68234	8804.13
440.74173	8801.84
440.80112	8733.78
440.8605	8640.49
440.91989	8587
440.97928	8606.28
441.03867	8694.99
441.09805	8829.02
441.15744	8973.26
441.21686	9096.41
441.27625	9174.54
441.33563	9211.85
441.39502	9240.15
441.45441	9252.48
441.51379	9240.86
441.57318	9269.53
441.63257	9365.5
441.69196	9436.83
441.75134	9388.78
441.81076	9233.58
441.87015	9058.32
441.92953	8936.37
441.98892	8880.52
442.04831	8866.93
442.1077	8886.02
442.16708	8945.38
442.22647	9028.23
442.28586	9083.84
442.34525	9086.33
442.40466	9089.07
442.46405	9170.52
442.52344	9310.43
442.58282	9379.64
442.64221	9294.31
442.7016	9120.64
442.76099	8991.56
442.82037	8981.84
442.87976	9082.51
442.93915	9242.42
442.99857	9405.22
443.05795	9512.21
443.11734	9500.14
443.17673	9352.37
443.23611	9155.29
443.2955	9021.53
443.35489	8975.04
443.41428	8994.05
443.47366	9108.63
443.53305	9329.21
443.59247	9507.21
443.65186	9485.25
443.71124	9326.9
443.77063	9201.44
443.83002	9173.21
443.8894	9212.53
443.94879	9283.54
444.00818	9360.99
444.06757	9395.71
444.12695	9353.14
444.18637	9295.36
444.24576	9322.72
444.30515	9430.02
444.36453	9505.73
444.42392	9471.34
444.48331	9355.51
444.54269	9247.97
444.60208	9244.87
444.66147	9397.67
444.72086	9638.47
444.78027	9795.44
444.83966	9753.05
444.89905	9567.88
444.95844	9389.09
445.01782	9331.63
445.07721	9432.62
445.1366	9614.18
445.19598	9691.18
445.25537	9545.33
445.31476	9280.94
445.37418	9117.3
445.43356	9190.39
445.49295	9468.75
445.55234	9755.77
445.61172	9830.14
445.67111	9660.55
445.7305	9413.99
445.78989	9275.51
445.84927	9343.9
445.90866	9580.1
445.96808	9770.43
446.02747	9719.19
446.08685	9487.58
446.14624	9317.85
446.20563	9375.31
446.26501	9600.42
446.3244	9762.06
446.38379	9681.14
446.44318	9425.25
446.50256	9248.4
446.56198	9337.84
446.62137	9616.27
446.68076	9776.78
446.74014	9630.74
446.79953	9349.36
446.85892	9238.2
446.9183	9413.17
446.97769	9711.91
447.03708	9837.31
447.09647	9661.45
447.15588	9375.13
447.21527	9264.32
447.27466	9407.14
447.33405	9611.11
447.39343	9643.31
447.45282	9519.87
447.51221	9449.94
447.57159	9532.7
447.63098	9663.4
447.69037	9711.67
447.74979	9683.49
447.80917	9679.17
447.86856	9730.03
447.92795	9734.31
447.98734	9608.72
448.04672	9459.47
448.10611	9473.86
448.1655	9643.61
448.22488	9740.99
448.28427	9641.71
448.34369	9517.14
448.40308	9575.73
448.46246	9748.52
448.52185	9808.23
448.58124	9729.78
448.64063	9703.9
448.70001	9800.71
448.7594	9873.02
448.81879	9833.91
448.87817	9792.04
448.93759	9828.94
448.99698	9845.25
449.05637	9751.79
449.11575	9655.98
449.17514	9698.92
449.23453	9816.16
449.29391	9844.09
449.3533	9786.53
449.41269	9767.63
449.47208	9792.11
449.53149	9780.8
449.59088	9757.57
449.65027	9790.25
449.70966	9843.9
449.76904	9852.31
449.82843	9830.17
449.88782	9816.98
449.9472	9807.75
450.00659	9808.09
450.06598	9850.36
450.1254	9902.76
450.18478	9903.49
450.24417	9871.25
450.30356	9853.02
450.36295	9855.73
450.42233	9869.89
450.48172	9881.41
450.54111	9886.79
450.60049	9894.94
450.65988	9891.94
450.7193	9847.87
450.77869	9767.04
450.83807	9692.83
450.89746	9632.19
450.95685	9512.99
451.01624	9275.09
451.07562	8968.33
451.13501	8707.18
451.1944	8561.53
451.25378	8516.41
451.3132	8504.01
451.37259	8466.07
451.43198	8402.38
451.49136	8355.05
451.55075	8352.21
451.61014	8385.45
451.66953	8431.79
451.72891	8479.15
451.7883	8523.27
451.84769	8545.69
451.9071	8520.18
451.96649	8449.32
452.02588	8365.56
452.08527	8295.9
452.14465	8250.4
452.20404	8232.67
452.26343	8237.69
452.32281	8246.44
452.3822	8244.27
452.44159	8243.44
452.50101	8266.76
452.56039	8308.12
452.61978	8338.76
452.67917	8351
452.73856	8359.56
452.79794	8364.86
452.85733	8355.82
452.91672	8338.65
452.9761	8330.75
453.03549	8334.88
453.09491	8336.17
453.1543	8326.63
453.21368	8324.56
453.27307	8358.88
453.33246	8433.58
453.39185	8520.25
453.45123	8589.24
453.51062	8632.92
453.57001	8657.72
453.62939	8672.41
453.68881	8676.44
453.7482	8649.29
453.80759	8573.88
453.86697	8471.69
453.92636	8392.39
453.98575	8371.28
454.04514	8408.81
454.10452	8485.32
454.16391	8585.11
454.2233	8696.68
454.28271	8791.28
454.3421	8830.6
454.40149	8804.72
454.46088	8737.07
454.52026	8662.71
454.57965	8615.88
454.63904	8609.06
454.69843	8620.72
454.75781	8630.94
454.8172	8660.44
454.87662	8746.65
454.936	8879.82
454.99539	8981.53
455.05478	8970.46
455.11417	8856.44
455.17355	8733.66
455.23294	8676.85
455.29233	8690.34
455.35172	8727.26
455.4111	8739.06
455.47052	8726.58
455.52991	8721.65
455.58929	8720.58
455.64868	8698.51
455.70807	8670.25
455.76746	8661.8
455.82684	8654.68
455.88623	8625.43
455.94562	8593.48
456.005	8591.71
456.06442	8629.63
456.12381	8701.14
456.1832	8793.64
456.24258	8871.47
456.30197	8880.74
456.36136	8806.98
456.42075	8710.28
456.48013	8663.27
456.53952	8680.07
456.59891	8738.87
456.65833	8819.37
456.71771	8872.7
456.7771	8832.39
456.83649	8707.62
456.89587	8587.86
456.95526	8544.14
457.01465	8600.81
457.07404	8760.97
457.13342	8971.33
457.19281	9103.94
457.25223	9063.72
457.31161	8893.32
457.371	8712.78
457.43039	8601.89
457.48978	8566.01
457.54916	8573.84
457.60855	8605.73
457.66794	8666.97
457.72733	8767.57
457.78671	8907.85
457.84613	9075.49
457.90552	9240.42
457.9649	9362.23
458.02429	9396.77
458.08368	9306.69
458.14307	9105.83
458.20245	8876.36
458.26184	8706.44
458.32123	8623.07
458.38062	8585.71
458.44003	8538.88
458.49942	8482.87
458.55881	8468.23
458.61819	8523.81
458.67758	8624
458.73697	8716.3
458.79636	8774
458.85574	8820.23
458.91513	8877.44
458.97452	8913.23
459.03394	8870.84
459.09332	8741.31
459.15271	8585.33
459.2121	8480.05
459.27148	8460.57
459.33087	8514.82
459.39026	8608.82
459.44965	8701.57
459.50903	8757.88
459.56842	8780.14
459.62784	8812.2
459.68723	8869.28
459.74661	8892.68
459.806	8831.02
459.86539	8705.75
459.92477	8553.12
459.98416	8398.36
460.04355	8283.74
460.10294	8245.16
460.16232	8280.77
460.22174	8363.1
460.28113	8454.99
460.34052	8531.21
460.3999	8600.65
460.45929	8679.32
460.51868	8747.09
460.57806	8768.63
460.63745	8740.47
460.69684	8685.59
460.75623	8620.58
460.81564	8547.46
460.87503	8473.88
460.93442	8425.04
460.9938	8418.85
461.05319	8445.21
461.11258	8481.11
461.17197	8508.5
461.23135	8520.75
461.29074	8522.27
461.35016	8514.42
461.40955	8491.56
461.46893	8463.47
461.52832	8460.26
461.58771	8500.09
461.64709	8563.33
461.70648	8599.12
461.76587	8568.36
461.82526	8504.26
461.88464	8489.82
461.94406	8546.81
462.00345	8616.79
462.06284	8660
462.12222	8656.53
462.18161	8584.69
462.241	8495.79
462.30038	8467.33
462.35977	8485.56
462.41916	8483.46
462.47855	8443.49
462.53796	8418.08
462.59735	8462.27
462.65674	8549.64
462.71613	8597.31
462.77551	8592.61
462.8349	8626.67
462.89429	8775.72
462.95367	9006.32
463.01306	9199.05
463.07245	9235.12
463.13187	9107.89
463.19125	8955.38
463.25064	8899.15
463.31003	8891.54
463.36942	8810.26
463.4288	8643.79
463.48819	8497.68
463.54758	8461.11
463.60696	8524.22
463.66635	8598.79
463.72577	8603.26
463.78516	8549.84
463.84454	8522.9
463.90393	8550.08
463.96332	8574.58
464.02271	8569.01
464.08209	8565.48
464.14148	8572.3
464.20087	8559.24
464.26025	8533.69
464.31967	8560.46
464.37906	8658.37
464.43845	8749.57
464.49783	8771.68
464.55722	8764.92
464.61661	8782.96
464.67599	8805.58
464.73538	8801.55
464.79477	8789.41
464.85416	8796.2
464.91357	8815.36
464.97296	8819.13
465.03235	8793.29
465.09174	8760.52
465.15112	8758.91
465.21051	8800.42
465.2699	8876.09
465.32928	8975.08
465.38867	9049.99
465.44806	9027.7
465.50748	8910.67
465.56686	8784
465.62625	8711.66
465.68564	8699.77
465.74503	8722.14
465.80441	8744.53
465.8638	8759.87
465.92319	8804.18
465.98257	8932.8
466.04196	9167.85
466.10138	9423.03
466.16077	9521.91
466.22015	9385.44
466.27954	9131.25
466.33893	8915.98
466.39832	8776.68
466.4577	8673.47
466.51709	8589.97
466.57648	8545.45
466.63586	8557.96
466.69528	8631.24
466.75467	8760.49
466.81406	8909.94
466.87344	8997.42
466.93283	8972.17
466.99222	8895.27
467.05161	8863.23
467.11099	8881.41
467.17038	8875.28
467.22977	8792.78
467.28918	8666.55
467.34857	8588.87
467.40796	8634.61
467.46735	8803.17
467.52673	9001.43
467.58612	9098.97
467.64551	9050.63
467.7049	8936.77
467.76428	8859.88
467.82367	8845.15
467.88309	8843.52
467.94247	8813.01
468.00186	8767.37
468.06125	8750.86
468.12064	8839.14
468.18002	9080.62
468.23941	9337.88
468.2988	9391.04
468.35818	9230.92
468.41757	9039.33
468.47699	8910.7
468.53638	8810.25
468.59576	8716.07
468.65515	8657.91
468.71454	8670.93
468.77393	8775.21
468.83331	8966.12
468.8927	9166
468.95209	9227.68
469.01147	9087.5
469.07089	8855.81
469.13028	8684.54
469.18967	8602.55
469.24905	8543.64
469.30844	8478.35
469.36783	8455.33
469.42722	8543.9
469.4866	8771.75
469.54599	9067.83
469.60538	9246.43
469.66479	9164.78
469.72418	8921.87
469.78357	8739.88
469.84296	8692.47
469.90234	8683.44
469.96173	8622.47
470.02112	8544.24
470.08051	8565.36
470.13989	8755.3
470.19928	9036.77
470.2587	9207.89
470.31808	9135.39
470.37747	8913.08
470.43686	8742.72
470.49625	8706.07
470.55563	8718.44
470.61502	8675.47
470.67441	8599.04
470.7338	8617.11
470.79318	8803.88
470.8526	9054.83
470.91199	9161.63
470.97137	9045.01
471.03076	8836.97
471.09015	8695.83
471.14954	8635.43
471.20892	8580.34
471.26831	8522.72
471.3277	8553.12
471.38708	8758.95
471.4465	9102.11
471.50589	9350.62
471.56528	9281.17
471.62466	8973.32
471.68405	8698.2
471.74344	8592.69
471.80283	8590
471.86221	8588.38
471.9216	8599.21
471.98099	8710.01
472.04041	8938.68
472.09979	9151.86
472.15918	9176.64
472.21857	9017.26
472.27795	8850.69
472.33734	8788.35
472.39673	8769.55
472.45612	8697.07
472.5155	8586.34
472.57489	8560.39
472.63431	8707.24
472.6937	8934.4
472.75308	9027.16
472.81247	8903.58
472.87186	8703.8
472.93124	8578.17
472.99063	8531.19
473.05002	8519.78
473.10941	8579.46
473.16879	8764.02
473.22821	8996.18
473.2876	9086.7
473.34698	8952.12
473.40637	8717.6
473.46576	8557.19
473.52515	8516.02
473.58453	8524.15
473.64392	8546.88
473.70331	8652.01
473.7627	8875.77
473.82211	9063.13
473.8815	8994.2
473.94089	8695.28
474.00027	8430.8
474.05966	8365.53
474.11905	8423.07
474.17844	8482.5
474.23782	8580.48
474.29721	8803.08
474.3566	9039.31
474.41602	9040.59
474.4754	8762.11
474.53479	8431.12
474.59418	8261.49
474.65356	8258.22
474.71295	8330.82
474.77234	8458.79
474.83173	8649.7
474.89111	8811.14
474.9505	8813.28
475.00992	8664.68
475.06931	8506.33
475.12869	8444.28
475.18808	8472.59
475.24747	8553.96
475.30685	8697.38
475.36624	8884.89
475.42563	8982.03
475.48502	8862.49
475.5444	8601.69
475.60382	8409.07
475.66321	8386.81
475.7226	8471.96
475.78198	8611.72
475.84137	8837.65
475.90076	9090.18
475.96014	9164.31
476.01953	8953.68
476.07892	8618.25
476.13831	8416.55
476.19772	8438.02
476.25711	8611.8
476.3165	8877.98
476.37589	9167.09
476.43527	9321.45
476.49466	9223.84
476.55405	8958.92
476.61343	8731.3
476.67282	8669.08
476.73221	8779.83
476.79163	9022.08
476.85101	9298.22
476.9104	9424.13
476.96979	9275.13
477.02917	8967.94
477.08856	8749.24
477.14795	8731.17
477.20734	8866.76
477.26672	9099.64
477.32611	9352.72
477.38553	9453.6
477.44492	9300.75
477.5043	9056.04
477.56369	8961.28
477.62308	9098.83
477.68246	9390.15
477.74185	9671.31
477.80124	9724.89
477.86063	9460.48
477.92001	9079.27
477.97943	8900.3
478.03882	9056.62
478.09821	9424.82
478.15759	9771.27
478.21698	9880.86
478.27637	9655.72
478.33575	9268.64
478.39514	9048.08
478.45453	9158.94
478.51392	9492.54
478.57333	9796.79
478.63272	9857.29
478.69211	9649.41
478.7515	9365.22
478.81088	9257.82
478.87027	9417.63
478.92966	9685.07
478.98904	9795.78
479.04843	9629.75
479.10782	9324.9
479.16724	9155.21
479.22662	9291.52
479.28601	9635.64
479.3454	9888.37
479.40479	9831.65
479.46417	9534.7
479.52356	9266.86
479.58295	9266.48
479.64233	9556.88
479.70172	9891.33
479.76114	9966.19
479.82053	9761.31
479.87991	9560
479.9393	9605.24
479.99869	9822.41
480.05807	9917.08
480.11746	9729.88
480.17685	9432.3
480.23624	9343.61
480.29562	9571.81
480.35504	9837.49
480.41443	9812.94
480.47382	9570.13
480.5332	9451.29
480.59259	9629.44
480.65198	9909.67
480.71136	9977.3
480.77075	9813.28
480.83014	9717.4
480.88953	9898.7
480.94894	10156.9
481.00833	10142.4
481.06772	9914.81
481.12711	9841.79
481.18649	10004.9
481.24588	10127.6
481.30527	10034.4
481.36465	9879.62
481.42404	9863.5
481.48343	9934.68
481.54285	9933.7
481.60223	9880.83
481.66162	9906.69
481.72101	9981.77
481.7804	9970.25
481.83978	9905.46
481.89917	9931.86
481.95856	10022.8
482.01794	10051.7
482.07733	10052.7
482.13675	10107.5
482.19614	10138.5
482.25552	10099.7
482.31491	10105.8
482.3743	10171.7
482.43369	10190.6
482.49307	10166.9
482.55246	10144.4
482.61185	10111.8
482.67123	10108.2
482.73065	10136.2
482.79004	10131.5
482.84943	10094.3
482.90881	10048.6
482.9682	10004.3
483.02759	9989.31
483.08698	10017.9
483.14636	10072.9
483.20575	10125.9
483.26514	10139
483.32455	10085.5
483.38394	9979.47
483.44333	9826.97
483.50272	9562.66
483.5621	9136.15
483.62149	8647.21
483.68088	8277.3
483.74026	8095.37
483.79965	8037.93
483.85904	8018.07
483.91846	8002.13
483.97784	7991.11
484.03723	7976.7
484.09662	7952.32
484.15601	7934.56
484.21539	7938.34
484.27478	7955.81
484.33417	7971.54
484.39355	7978.81
484.45294	7980.58
484.51236	7981.65
484.57175	7985.51
484.63113	7997.94
484.69052	8020.57
484.74991	8045.39
484.8093	8067.75
484.86868	8090.92
484.92807	8104.89
484.98746	8084.84
485.04684	8028.17
485.10626	7963.96
485.16565	7920.5
485.22504	7909.05
485.28442	7932.78
485.34381	7988.53
485.4032	8062.39
485.46259	8144.04
485.52197	8241.55
485.58136	8358
485.64075	8461.72
485.70016	8516.71
485.75955	8540.51
485.81894	8613.98
485.87833	8874.91
485.93771	9533.6
485.9971	10774.7
486.05649	12404
486.11588	13612.8
486.17526	13530.3
486.23465	12189.5
486.29407	10515.1
486.35345	9311.21
486.41284	8698.12
486.47223	8427.66
486.53162	8298.09
486.591	8244.54
486.65039	8243.52
486.70978	8255.02
486.76917	8238.2
486.82855	8179.74
486.88797	8101.26
486.94736	8040.36
487.00674	8019.41
487.06613	8032.56
487.12552	8051.89
487.18491	8059.24
487.24429	8062.77
487.30368	8070.93
487.36307	8075.11
487.42245	8068.74
487.48187	8052.4
487.54126	8027.98
487.60065	8003.8
487.66003	7993.73
487.71942	8002.43
487.77881	8007.65
487.8382	7973.15
487.89758	7900.77
487.95697	7841.51
488.01636	7835.59
488.07578	7872.18
488.13516	7910.65
488.19455	7923.13
488.25394	7918.92
488.31332	7922.83
488.37271	7932.78
488.4321	7925.42
488.49149	7898.04
488.55087	7875.37
488.61026	7878.83
488.66968	7907.38
488.72906	7947.09
488.78845	7984.01
488.84784	7999.8
488.90723	7977.41
488.96661	7929.15
489.026	7898.07
489.08539	7915.09
489.14478	7965.81
489.20416	8007.97
489.26358	8020.05
489.32297	8015.83
489.38235	8015.47
489.44174	8023.92
489.50113	8036.69
489.56052	8046.78
489.6199	8036.93
489.67929	8002.13
489.73868	7986.04
489.79807	8038.22
489.85748	8124.52
489.91687	8152.3
489.97626	8098.55
490.03564	8034.81
490.09503	8025.8
490.15442	8061.61
490.21381	8093.51
490.27319	8095.74
490.33258	8080.88
490.39197	8067.34
490.45139	8051.88
490.51077	8025.51
490.57016	7995.33
490.62955	7973.5
490.68893	7970.03
490.74832	8005.28
490.80771	8093.37
490.8671	8202.67
490.92648	8261.88
490.98587	8226.91
491.04529	8135.06
491.10468	8068.51
491.16406	8062.97
491.22345	8079.35
491.28284	8064.8
491.34222	8022.6
491.40161	7996.58
491.461	7995.41
491.52039	7987.79
491.57977	7960.22
491.63919	7932.17
491.69858	7933.22
491.75797	7994.05
491.81735	8129.38
491.87674	8280.87
491.93613	8335.86
491.99551	8261.1
492.0549	8137.79
492.11429	8051.83
492.17368	8022.95
492.23309	8031.34
492.29248	8058.82
492.35187	8089.06
492.41125	8092.51
492.47064	8048.72
492.53003	7980.92
492.58942	7939.91
492.6488	7970.52
492.70819	8112.85
492.76758	8370
492.827	8622.17
492.88638	8680.78
492.94577	8515.1
493.00516	8304.25
493.06454	8200.62
493.12393	8214.79
493.18332	8290.52
493.24271	8370.81
493.30209	8404.2
493.36148	8362.76
493.4209	8261.55
493.48029	8148.02
493.53967	8067.52
493.59906	8032.89
493.65845	8029.29
493.71783	8043.59
493.77722	8079.12
493.83661	8135.42
493.896	8176.25
493.95538	8155.98
494.0148	8084.51
494.07419	8023.67
494.13358	8019.65
494.19296	8057.95
494.25235	8078.75
494.31174	8048.44
494.37112	7995.57
494.43051	7956.21
494.4899	7927.84
494.54929	7895.97
494.6087	7866.59
494.66809	7865.17
494.72748	7917.19
494.78687	8015.76
494.84625	8104.3
494.90564	8121.59
494.96503	8071.33
495.02441	8010.94
495.0838	7974.12
495.14319	7946.09
495.20261	7907.72
495.26199	7862.45
495.32138	7821.71
495.38077	7796.82
495.44016	7798.66
495.49954	7827.88
495.55893	7871.95
495.61832	7918.43
495.6777	7976.78
495.73709	8066.73
495.79651	8154.93
495.8559	8164.52
495.91528	8087.43
495.97467	8008.45
496.03406	7987.61
496.09344	7986.68
496.15283	7948.27
496.21222	7875.17
496.27161	7807.24
496.33099	7764.07
496.39041	7742.94
496.4498	7739.39
496.50919	7755.34
496.56857	7799.01
496.62796	7867.84
496.68735	7942.42
496.74673	7998.71
496.80612	8008.03
496.86551	7963.93
496.9249	7906.28
496.98431	7866.35
497.0437	7835.93
497.10309	7815.56
497.16248	7821.93
497.22186	7843.29
497.28125	7843.5
497.34064	7806.13
497.40002	7752.48
497.45941	7727.92
497.5188	7769.29
497.57822	7862.4
497.6376	7933.92
497.69699	7921.27
497.75638	7847.98
497.81577	7788.99
497.87515	7768.11
497.93454	7742.38
497.99393	7682.59
498.05331	7612.52
498.1127	7568.37
498.17212	7561.28
498.23151	7579.07
498.29089	7600.86
498.35028	7620.18
498.40967	7666.11
498.46906	7768.16
498.52844	7882.43
498.58783	7912.12
498.64722	7835.88
498.7066	7745.01
498.76602	7716.64
498.82541	7719.06
498.8848	7693.05
498.94418	7637.4
499.00357	7580.15
499.06296	7534.96
499.12234	7504.85
499.18173	7497.54
499.24112	7536.02
499.30051	7643.83
499.35992	7803.96
499.41931	7943.65
499.4787	7993.41
499.53809	7959.05
499.59747	7903.69
499.65686	7870.62
499.71625	7852.69
499.77563	7823.26
499.83502	7777.27
499.89441	7734.47
499.95383	7708.92
500.01321	7695.71
500.0726	7694.89
500.13199	7735.29
500.19138	7846.4
500.25076	7988.84
500.31015	8059.5
500.36954	8018.79
500.42892	7945.86
500.48831	7908.21
500.54773	7880.75
500.60712	7840.57
500.6665	7820.7
500.72589	7840.07
500.78528	7868.89
500.84467	7877.27
500.90405	7883.08
500.96344	7942.16
501.02283	8076.23
501.08221	8218.42
501.14163	8287.41
501.20102	8286.22
501.26041	8273.08
501.31979	8274.53
501.37918	8257.95
501.43857	8181.05
501.49796	8053.05
501.55734	7923.23
501.61673	7828.7
501.67612	7784.24
501.73553	7804.8
501.79492	7907.68
501.85431	8077.18
501.9137	8231.94
501.97308	8280.96
502.03247	8221.15
502.09186	8123.15
502.15125	8035.34
502.21063	7953.09
502.27002	7868.17
502.32944	7796.1
502.38882	7755.24
502.44821	7751.91
502.5076	7781.64
502.56699	7850.68
502.62637	7984.61
502.68576	8167.55
502.74515	8303.6
502.80453	8319.22
502.86392	8262.96
502.92334	8225.2
502.98273	8209.29
503.04211	8156.61
503.1015	8056.4
503.16089	7958.44
503.22028	7908.16
503.27966	7915.73
503.33905	7960.98
503.39844	8010.62
503.45782	8056.43
503.51724	8124.86
503.57663	8208.51
503.63602	8246.3
503.6954	8225.06
503.75479	8192.93
503.81418	8150.06
503.87357	8065.81
503.93295	7964.63
503.99234	7892.22
504.05173	7864.98
504.11115	7893.92
504.17053	7995.46
504.22992	8147.69
504.28931	8275.08
504.34869	8318.52
504.40808	8298.91
504.46747	8275.9
504.52686	8261.06
504.58624	8209.74
504.64563	8100.46
504.70505	7975.03
504.76443	7883.1
504.82382	7840.17
504.88321	7863.35
504.9426	8001.86
505.00198	8268.77
505.06137	8537.88
505.12076	8625.34
505.18015	8479.8
505.23953	8229.07
505.29895	8054.2
505.35834	8024.93
505.41772	8059.1
505.47711	8053.41
505.5365	7999.87
505.59589	7960.98
505.65527	8000.85
505.71466	8140.51
505.77405	8320.97
505.83344	8441.02
505.89285	8453.45
505.95224	8377.37
506.01163	8240.12
506.07101	8073.75
506.1304	7932.31
506.18979	7853.83
506.24918	7830.12
506.30856	7849.45
506.36795	7946.67
506.42734	8155.17
506.48676	8399.21
506.54614	8532.18
506.60553	8521.52
506.66492	8447.21
506.7243	8336.76
506.78369	8178.98
506.84308	8018.96
506.90247	7906.38
506.96185	7847.58
507.02124	7861.13
507.08066	7988.51
507.14005	8215.17
507.19943	8425.89
507.25882	8501.8
507.31821	8460.6
507.37759	8402.11
507.43698	8340.48
507.49637	8220.66
507.55576	8056.49
507.61514	7928.41
507.67456	7887.46
507.73395	7948.89
507.79333	8127
507.85272	8385.81
507.91211	8600.61
507.9715	8673.8
508.03088	8631.57
508.09027	8516
508.14966	8325.12
508.20905	8094.3
508.26846	7919.82
508.32785	7868.33
508.38724	7934.6
508.44662	8094.78
508.50601	8312.17
508.5654	8479.8
508.62479	8500.31
508.68417	8429.78
508.74356	8367.2
508.80295	8280.98
508.86237	8125.13
508.92175	7966.16
508.98114	7878.56
509.04053	7881.68
509.09991	7986.47
509.1593	8175.08
509.21869	8353.63
509.27808	8432.3
509.33746	8427.89
509.39685	8393.84
509.45627	8311.43
509.51566	8144.87
509.57504	7937.84
509.63443	7786.92
509.69382	7766.87
509.7532	7910.61
509.81259	8191.67
509.87198	8494.68
509.93137	8659.09
509.99075	8591.57
510.05017	8345.88
510.10956	8084.98
510.16895	7932.87
510.22833	7880.78
510.28772	7858.02
510.34711	7854.67
510.40649	7936.74
510.46588	8150.18
510.52527	8424.76
510.58466	8604.42
510.64407	8581.2
510.70346	8394.14
510.76285	8189.33
510.82224	8081.71
510.88162	8071.45
510.94101	8080.62
511.0004	8054.23
511.05978	8017.41
511.11917	8033.84
511.17856	8129.96
511.23798	8257.3
511.29736	8344.25
511.35675	8365.53
511.41614	8351.76
511.47552	8360.56
511.53491	8423.7
511.5943	8514.45
511.65369	8571.64
511.71307	8544.74
511.77246	8448.19
511.83188	8352.97
511.89127	8298.56
511.95065	8261.54
512.01001	8227.41
512.0694	8233.19
512.12885	8321.85
512.18823	8479.33
512.24762	8624.65
512.30701	8692.39
512.36639	8709.41
512.42578	8709.98
512.48517	8645.04
512.54456	8491.08
512.60394	8365.39
512.66333	8421.61
512.72272	8665.07
512.7821	8912.12
512.84149	8993.13
512.90088	8958.14
512.96027	8917.15
513.01965	8827.13
513.07904	8649.13
513.13843	8523.89
513.19781	8599.66
513.2572	8809.2
513.31665	8950.42
513.37604	8944.02
513.43542	8883.15
513.49481	8813.67
513.5542	8666.64
513.61359	8468.01
513.67297	8404.18
513.73236	8572.19
513.79175	8809.66
513.85114	8910.28
513.91052	8893.35
513.96991	8867.81
514.0293	8799.71
514.08868	8658.76
514.14807	8597.4
514.20746	8746.41
514.26685	8979.72
514.32623	9088.54
514.38562	9083.66
514.44501	9081.84
514.50446	9039.27
514.56384	8899.92
514.62323	8816.27
514.68262	8893.88
514.742	8966.02
514.80139	8888.71
514.86078	8790.41
514.92017	8805.79
514.97955	8862.42
515.03894	8909.78
515.09833	9026.63
515.15771	9165.34
515.2171	9131.34
515.27649	8926.33
515.33588	8741.43
515.39526	8645.03
515.45465	8646.44
515.51404	8810.27
515.57343	9039.86
515.63281	9116.24
515.69226	9048.18
515.75165	8999.03
515.81104	8991.9
515.87042	8992.3
515.92981	9024.08
515.9892	9077.61
516.04858	9107.98
516.10797	9113.5
516.16736	9120.52
516.22675	9156.7
516.28613	9240.08
516.34552	9330.49
516.40491	9357.36
516.46429	9313.37
516.52368	9235.99
516.58307	9150.13
516.64246	9068.53
516.70184	8977.62
516.76123	8888.76
516.82062	8888.67
516.88007	9001.37
516.93945	9122.01
516.99884	9139.08
517.05823	9000.89
517.11761	8819.24
517.177	8838.78
517.23639	9065.07
517.29578	9230.53
517.35516	9141.71
517.41455	8903.57
517.47394	8804.93
517.53333	8948.32
517.59271	9109.78
517.6521	9093.74
517.71149	8996.64
517.77087	9041.71
517.83026	9228.57
517.88965	9328.26
517.94904	9225.46
518.00842	9075.09
518.06787	9040.46
518.12726	9056.24
518.18665	8989.83
518.24603	8901.46
518.30542	8932.3
518.36481	9021.22
518.42419	9009.75
518.48358	8959.45
518.54297	9022.73
518.60236	9111.8
518.66174	9082.64
518.72113	9024.67
518.78052	9036.77
518.8399	9045.16
518.89929	9014.73
518.95868	9004.45
519.01807	9018.75
519.07745	9031.96
519.13684	9053.43
519.19623	9082.69
519.25568	9106.14
519.31506	9121.11
519.37445	9125.74
519.43384	9113.71
519.49323	9076.62
519.55261	9034.46
519.612	9031.92
519.67139	9030.69
519.73077	8884.16
519.79016	8531.02
519.84955	8110.57
519.90894	7799.84
519.96832	7640.23
520.02771	7567.26
520.0871	7519.15
520.14648	7479.1
520.20587	7454.23
520.26526	7445.42
520.32465	7444.49
520.38403	7449.05
520.44348	7459.99
520.50287	7464.3
520.56226	7443.38
520.62164	7403.86
520.68103	7378.56
520.74042	7385.34
520.7998	7402.4
520.85919	7397.28
520.91858	7363.29
520.97797	7317.71
521.03735	7284.53
521.09674	7277.17
521.15613	7289.25
521.21552	7305.85
521.2749	7319.78
521.33429	7332.26
521.39368	7345.11
521.45306	7355.06
521.51245	7352.05
521.5719	7332.63
521.63129	7316.58
521.69067	7330.85
521.75006	7375.04
521.80945	7418.84
521.86884	7433.7
521.92822	7416.34
521.98761	7384.76
522.047	7354.92
522.10638	7331.79
522.16577	7318.83
522.22516	7317.13
522.28455	7317.37
522.34393	7308.17
522.40332	7291.69
522.46271	7282.12
522.52209	7287.96
522.58148	7302.99
522.64087	7317.21
522.70026	7328.15
522.7597	7340.04
522.81909	7357.46
522.87848	7380.07
522.93787	7404.02
522.99725	7426.3
523.05664	7443.7
523.11603	7450.87
523.17542	7443.02
523.2348	7420.64
523.29419	7391.31
523.35358	7365.59
523.41296	7349.74
523.47235	7343.58
523.53174	7346.1
523.59113	7359.86
523.65051	7385.4
523.7099	7414.37
523.76929	7438.06
523.82867	7459.44
523.88806	7481.93
523.94751	7495.36
524.0069	7489.49
524.06628	7465.37
524.12567	7431.68
524.18506	7406.2
524.24445	7410.61
524.30383	7454.77
524.36322	7526.46
524.42261	7589.68
524.48199	7602.56
524.54138	7554.31
524.60077	7482.57
524.66016	7442.56
524.71954	7457.7
524.77893	7503.64
524.83832	7539.08
524.89771	7545.68
524.95709	7535.93
525.01648	7531.6
525.07587	7542.88
525.13531	7560.82
525.1947	7566.78
525.25409	7553.12
525.31348	7526.39
525.37286	7496.17
525.43225	7476.85
525.49164	7489.9
525.55103	7549.53
525.61041	7641.69
525.6698	7715.35
525.72919	7715.7
525.78857	7641.83
525.84796	7548.44
525.90735	7488.07
525.96674	7476.19
526.02612	7499.03
526.08551	7527.03
526.1449	7537.46
526.20428	7544.25
526.26367	7585.07
526.32312	7669.19
526.38251	7746.69
526.44189	7764.02
526.50128	7734.85
526.56067	7700.38
526.62006	7666.46
526.67944	7623.56
526.73883	7577.5
526.79822	7549.56
526.8576	7555.53
526.91699	7586.8
526.97638	7618.97
527.03577	7629.35
527.09515	7610.02
527.15454	7573.97
527.21393	7540.86
527.27332	7515.23
527.3327	7490.35
527.39209	7467.39
527.45148	7460.1
527.51093	7481.27
527.57031	7523.26
527.6297	7556.63
527.68909	7560.94
527.74847	7542.39
527.80786	7509.54
527.86725	7466.67
527.92664	7435.58
527.98602	7445.28
528.04541	7499.06
528.1048	7563.15
528.16418	7588.48
528.22357	7560.8
528.28296	7513.38
528.34235	7479.33
528.40173	7472.25
528.46112	7492.03
528.52051	7516.1
528.5799	7517.88
528.63928	7501
528.69873	7485.39
528.75812	7472.44
528.8175	7453.74
528.87689	7434.12
528.93628	7421.17
528.99567	7411.42
529.05505	7404.09
529.11444	7412.93
529.17383	7448.88
529.23322	7501.03
529.2926	7542.42
529.35199	7547.5
529.41138	7512.28
529.47076	7463.06
529.53015	7428.99
529.58954	7413.04
529.64893	7401.59
529.70831	7391.76
529.7677	7398.59
529.82709	7434.52
529.88654	7486.32
529.94592	7516.98
530.00531	7502.08
530.0647	7460.69
530.12408	7428.69
530.18347	7409.9
530.24286	7399.56
530.30225	7419.49
530.36163	7471.2
530.42102	7508.92
530.48041	7502.53
530.53979	7467.91
530.59918	7424.3
530.65857	7378.37
530.71796	7342.15
530.77734	7328.92
530.83673	7339.29
530.89612	7362.13
530.95551	7388.97
531.01489	7422.91
531.07434	7464.37
531.13373	7495.27
531.19312	7494.74
531.2525	7467.36
531.31189	7435.42
531.37128	7412.7
531.43066	7408.42
531.49005	7433.67
531.54944	7476.48
531.60883	7496.99
531.66821	7472.79
531.7276	7425.42
531.78699	7383.86
531.84637	7350.95
531.90576	7318.88
531.96515	7289.8
532.02454	7271.23
532.08392	7269.04
532.14331	7289.01
532.2027	7331.53
532.26215	7384.93
532.32153	7432.27
532.38092	7457.39
532.44031	7453.53
532.49969	7438.37
532.55908	7443.33
532.61847	7483.91
532.67786	7542.09
532.73724	7568.79
532.79663	7529.15
532.85602	7449.18
532.91541	7379.03
532.97479	7328.94
533.03418	7285.47
533.09357	7245.01
533.15295	7209.4
533.21234	7191.38
533.27173	7208.04
533.33112	7250.94
533.3905	7289.91
533.44995	7310.64
533.50934	7323.17
533.56873	7329.48
533.62811	7314
533.6875	7279.23
533.74689	7265.5
533.80627	7310.01
533.86566	7387.89
533.92505	7432.31
533.98444	7414.81
534.04382	7360.25
534.10321	7300.93
534.1626	7255.36
534.22198	7234.08
534.28137	7243.79
534.34076	7286.76
534.40015	7352.75
534.45953	7407.92
534.51892	7411.62
534.57831	7363.61
534.63776	7311.45
534.69714	7293.36
534.75653	7305.02
534.81592	7333.61
534.87531	7379.41
534.93469	7428.37
534.99408	7444.05
535.05347	7411.98
535.11285	7363
535.17224	7333.21
535.23163	7329.29
535.29102	7341.62
535.3504	7363.12
535.40979	7391.12
535.46918	7426.5
535.52856	7470.44
535.58795	7510.64
535.64734	7523.45
535.70673	7512.54
535.76611	7515.36
535.82556	7545.58
535.88495	7581.33
535.94434	7622
536.00372	7683.6
536.06311	7735.54
536.1225	7719
536.18188	7634.21
536.24127	7539.35
536.30066	7474.43
536.36005	7438.8
536.41943	7428.28
536.47882	7449.88
536.53821	7506.37
536.5976	7577.83
536.65698	7620.45
536.71637	7602.28
536.77576	7548.91
536.83514	7521.79
536.89453	7544.49
536.95392	7593.95
537.01337	7655
537.07275	7717.05
537.13214	7737.95
537.19153	7688.89
537.25092	7604.09
537.3103	7533.35
537.36969	7488.45
537.42908	7459.81
537.48846	7449.37
537.54785	7470.93
537.60724	7525.35
537.66663	7582.81
537.72601	7601.52
537.7854	7576.29
537.84479	7554.8
537.90417	7577.12
537.96356	7625.01
538.02295	7668.97
538.08234	7714.64
538.14172	7750.53
538.20117	7724.62
538.26056	7628.71
538.31995	7526.82
538.37933	7472.96
538.43872	7462.08
538.49811	7468.65
538.5575	7490.75
538.61688	7540.08
538.67627	7609.72
538.73566	7667.97
538.79504	7685.04
538.85443	7660.74
538.91382	7620.63
538.97321	7595.75
539.03259	7612.08
539.09198	7669.75
539.15137	7715.16
539.21075	7682.94
539.27014	7587.83
539.32953	7507.4
539.38898	7473.98
539.44836	7458.15
539.50775	7442.52
539.56714	7444.6
539.62653	7478.79
539.68591	7518.96
539.7453	7516.07
539.80469	7466.07
539.86407	7430.83
539.92346	7456.51
539.98285	7515.34
540.04224	7569.87
540.10162	7613.46
540.16101	7619.52
540.2204	7560.55
540.27979	7464.02
540.33917	7383.51
540.39856	7343.98
540.45795	7338.13
540.51733	7355.42
540.57678	7394.59
540.63617	7444.63
540.69556	7473.18
540.75494	7458.53
540.81433	7424.31
540.87372	7412.19
540.93311	7432.71
540.99249	7475.32
541.05188	7530.1
541.11127	7558.19
541.17065	7508.34
541.23004	7398.18
541.28943	7301.34
541.34882	7258.97
541.4082	7262.16
541.46759	7290.85
541.52698	7336.45
541.58636	7393.37
541.64575	7437.95
541.70514	7439.17
541.76459	7408.64
541.82397	7403.13
541.88336	7452.77
541.94275	7534.25
542.00214	7608.06
542.06152	7623.29
542.12091	7542.34
542.1803	7406.21
542.23969	7294.57
542.29907	7233.47
542.35846	7207.53
542.41785	7214.02
542.47723	7261.58
542.53662	7338.14
542.59601	7400.34
542.6554	7408.17
542.71478	7376.54
542.77417	7363.97
542.83356	7408.81
542.89294	7503.57
542.95239	7602.65
543.01178	7627.47
543.07117	7537.63
543.13055	7396.76
543.18994	7292.95
543.24933	7247.03
543.30872	7237.41
543.3681	7250.69
543.42749	7287.3
543.48688	7334.69
543.54626	7356.1
543.60565	7335.11
543.66504	7310.24
543.72443	7326.7
543.78381	7387.74
543.8432	7465.27
543.90259	7502.62
543.96198	7441.14
544.02136	7297.81
544.08075	7154.78
544.1402	7066.75
544.19958	7035.42
544.25897	7047.68
544.31836	7098.32
544.37775	7179.86
544.43713	7263.6
544.49652	7312.71
544.55591	7326.6
544.6153	7348.07
544.67468	7410.48
544.73407	7486.49
544.79346	7503.32
544.85284	7420.56
544.91223	7283.43
544.97162	7166.93
545.03101	7105.54
545.09039	7104.2
545.14978	7158.58
545.20917	7232.07
545.26855	7261
545.328	7224.76
545.38739	7181.47
545.44678	7202.7
545.50616	7299.48
545.56555	7422.08
545.62494	7504.3
545.68433	7501.05
545.74371	7419.2
545.8031	7341.78
545.86249	7399.7
545.92188	7704.29
545.98126	8202.22
546.04065	8561.24
546.10004	8458.29
546.15942	8000.77
546.21881	7565.08
546.2782	7368.01
546.33759	7405.04
546.39697	7558.18
546.45636	7659.13
546.51581	7599.2
546.5752	7426.82
546.63458	7273.18
546.69397	7206.5
546.75336	7207.74
546.81274	7246.94
546.87213	7314.16
546.93152	7382.22
546.99091	7407.48
547.05029	7395.83
547.10968	7417.5
547.16907	7524.11
547.22845	7668.64
547.28784	7732.76
547.34723	7652.45
547.40662	7489.94
547.466	7350.05
547.52539	7274.76
547.58478	7260.09
547.64417	7309.52
547.70361	7409.96
547.763	7492.27
547.82239	7494.24
547.88177	7461.15
547.94116	7512.26
548.00055	7683.81
548.05994	7848.51
548.11932	7839.06
548.17871	7648.92
548.2381	7435.74
548.29749	7322.21
548.35687	7307.21
548.41626	7350.5
548.47565	7431.67
548.53503	7513.96
548.59442	7540
548.65381	7523.04
548.7132	7560.26
548.77258	7692.3
548.83197	7821.97
548.89142	7810.53
548.95081	7644.2
549.01019	7444.87
549.06958	7322.35
549.12897	7295.69
549.18835	7341.47
549.24774	7429.77
549.30713	7507.42
549.36652	7528.65
549.4259	7532.32
549.48529	7616.69
549.54468	7795.44
549.60406	7926.34
549.66345	7864.53
549.72284	7656.57
549.78223	7469.79
549.84161	7391.44
549.901	7406.24
549.96039	7478.41
550.01978	7563.84
550.07922	7603.76
550.13861	7597.55
550.198	7631.62
550.25739	7730.83
550.31677	7776.03
550.37616	7684.19
550.43555	7528.76
550.49493	7405.71
550.55432	7333.75
550.61371	7312.46
550.6731	7353.06
550.73248	7435.13
550.79187	7508.9
550.85126	7570.67
550.91064	7685.36
550.97003	7869.19
551.02942	7992.99
551.08881	7919.65
551.14819	7701.72
551.20758	7510.05
551.26703	7430.43
551.32642	7439.75
551.3858	7490.9
551.44519	7534.33
551.50458	7531.78
551.56396	7528.91
551.62335	7640.44
551.68274	7843.8
551.74213	7919.31
551.80151	7750.75
551.8609	7496.03
551.92029	7339.8
551.97968	7309.84
552.03906	7365.92
552.09845	7472.26
552.15784	7570.9
552.21722	7649.96
552.27661	7789.86
552.336	7961.93
552.39539	7968.35
552.45483	7748.72
552.51422	7480.23
552.57361	7325.62
552.633	7297.74
552.69238	7348.26
552.75177	7438.11
552.81116	7546.04
552.87054	7681.95
552.92993	7851.16
552.98932	7974.74
553.04871	7935.84
553.10809	7736.63
553.16748	7511.8
553.22687	7383.4
553.28625	7376.98
553.34564	7447.5
553.40503	7539.55
553.46442	7651.61
553.5238	7819.1
553.58319	7973.63
553.64264	7941.86
553.70203	7696.96
553.76141	7418.93
553.8208	7260.93
553.88019	7249.19
553.93958	7350.63
553.99896	7502.44
554.05835	7655.9
554.11774	7827.62
554.17712	7980.26
554.23651	7964.14
554.2959	7740.46
554.35529	7477.92
554.41467	7336.35
554.47406	7331.34
554.53345	7413.25
554.59283	7544.39
554.65222	7711.67
554.71161	7871.05
554.771	7908.27
554.83044	7753.14
554.88983	7508.55
554.94922	7338.75
555.00861	7307.42
555.06799	7376.49
555.12738	7494.94
555.18677	7654.62
555.24615	7835.25
555.30554	7922.88
555.36493	7808.03
555.42432	7549.14
555.4837	7315.7
555.54309	7224.45
555.60248	7291.01
555.66187	7467.68
555.72125	7684.47
555.78064	7847.96
555.84003	7849.83
555.89941	7673.28
555.9588	7447.3
556.01825	7319.8
556.07764	7334.2
556.13702	7450.91
556.19641	7615.68
556.2558	7765.96
556.31519	7815.68
556.37457	7714.97
556.43396	7528.96
556.49335	7390.18
556.55273	7383.34
556.61212	7508.02
556.67151	7693.13
556.7309	7815.81
556.79028	7775.01
556.84967	7587.29
556.90906	7379.06
556.96844	7285.02
557.02783	7364.86
557.08722	7572.96
557.14661	7771.74
557.20605	7815.8
557.26544	7673.07
557.32483	7454.57
557.38422	7317.16
557.4436	7348.74
557.50299	7515.87
557.56238	7685.8
557.62177	7727.55
557.68115	7623.09
557.74054	7476.24
557.79993	7424.18
557.85931	7529.71
557.9187	7715.11
557.97809	7822.57
558.03748	7781.97
558.09686	7658.78
558.15625	7586.32
558.21564	7667.33
558.27502	7855.81
558.33441	7968.54
558.39386	7892.05
558.45325	7710
558.51263	7595.78
558.57202	7634.25
558.63141	7744.84
558.6908	7777.81
558.75018	7704.72
558.80957	7632.69
558.86896	7655.42
558.92834	7746.02
558.98773	7794.25
559.04712	7750.29
559.10651	7688.28
559.16589	7700.47
559.22528	7782.22
559.28467	7853.09
559.34406	7877.31
559.40344	7890.67
559.46283	7907.14
559.52222	7902.21
559.58167	7884.09
559.64105	7886.58
559.70044	7904.71
559.75983	7915.82
559.81921	7932.2
559.8786	7963.5
559.93799	7976.26
559.99738	7952.18
560.05676	7921.33
560.11615	7905.49
560.17554	7902.94
560.23492	7910.91
560.29431	7914.71
560.3537	7910.04
560.41309	7916.8
560.47247	7923.37
560.53186	7890.38
560.59125	7818.7
560.65063	7753.87
560.71002	7751.95
560.76947	7823.6
560.82886	7871.5
560.88824	7774.84
560.94763	7556.07
561.00702	7360.45
561.06641	7254.55
561.12579	7206.18
561.18518	7196.84
561.24457	7215.51
561.30396	7234.02
561.36334	7233.01
561.42273	7222.57
561.48212	7219.08
561.5415	7213.79
561.60089	7187.02
561.66028	7137.5
561.71967	7082.06
561.77905	7040.44
561.83844	7027.61
561.89783	7049.27
561.95728	7096.96
562.01666	7147.43
562.07605	7174.16
562.13544	7168.23
562.19482	7146.67
562.25421	7131.94
562.3136	7131.18
562.37299	7140.68
562.43237	7156.63
562.49176	7173.5
562.55115	7180.8
562.61053	7168.95
562.66992	7139.8
562.72931	7111.52
562.7887	7106.27
562.84808	7126.43
562.90747	7150.08
562.96686	7156.38
563.02625	7144.31
563.08563	7124.93
563.14508	7111.25
563.20447	7117.69
563.26385	7152.16
563.32324	7202.2
563.38263	7236.22
563.44202	7229.22
563.5014	7184.08
563.56079	7124.95
563.62018	7072.34
563.67957	7028.56
563.73895	6994.91
563.79834	6984.43
563.85773	6995.86
563.91711	7008.29
563.9765	7016.06
564.03589	7031.92
564.09528	7056.2
564.15466	7072.16
564.21405	7077.34
564.27344	7089.94
564.33289	7117.78
564.39227	7143.04
564.45166	7144.95
564.51105	7124.77
564.57043	7100.77
564.62982	7082.85
564.68921	7067.07
564.7486	7052.98
564.80798	7047.95
564.86737	7051.15
564.92676	7045.45
564.98615	7022.93
565.04553	7005.71
565.10492	7012.52
565.16431	7030.68
565.22369	7040.77
565.28308	7042.78
565.34247	7048.57
565.40186	7059.5
565.46124	7062.1
565.52069	7051.21
565.58008	7042.59
565.63947	7053.12
565.69885	7082.7
565.75824	7118.43
565.81763	7145.33
565.87701	7152.36
565.9364	7133.02
565.99579	7091.09
566.05518	7044.59
566.11456	7009.86
566.17395	6987.75
566.23334	6972.9
566.29272	6964.55
566.35211	6967.4
566.4115	6989.09
566.47089	7030.24
566.53027	7073.1
566.58966	7089.51
566.64905	7067.65
566.7085	7027.74
566.76788	7004.33
566.82727	7016.73
566.88666	7052.74
566.94604	7082.02
567.00543	7097.81
567.06482	7115.61
567.12421	7125.57
567.18359	7108.63
567.24298	7077.32
567.30237	7056.02
567.36176	7050.57
567.42114	7037.12
567.48053	6986.44
567.53992	6914.05
567.5993	6871.05
567.65869	6879.54
567.71808	6914.27
567.77747	6945.91
567.83685	6970.48
567.8963	7000.61
567.95569	7045.62
568.01508	7102.23
568.07446	7151.28
568.13385	7166.73
568.19324	7139.43
568.25262	7085.78
568.31201	7028.54
568.3714	6979.8
568.43079	6942.93
568.49017	6920.59
568.54956	6918.34
568.60895	6943.17
568.66833	6997.76
568.72772	7068.1
568.78711	7122.79
568.8465	7145.33
568.90588	7144.18
568.96527	7120.81
569.02466	7072
569.08411	7015.11
569.14349	6974.91
569.20288	6960.36
569.26227	6966.53
569.32166	6985.93
569.38104	7013.35
569.44043	7043.12
569.49982	7067.04
569.5592	7079.14
569.61859	7081.62
569.67798	7082.39
569.73737	7086.37
569.79675	7092.3
569.85614	7094.03
569.91553	7082.02
569.97491	7058.33
570.0343	7041.77
570.09369	7044.57
570.15308	7063.81
570.21246	7096.6
570.27191	7144.23
570.3313	7196.54
570.39069	7224.39
570.45007	7205.72
570.50946	7154.85
570.56885	7107.63
570.62823	7080.98
570.68762	7063.67
570.74701	7044.66
570.8064	7032.46
570.86578	7038.03
570.92517	7056.25
570.98456	7074.14
571.04395	7085.37
571.10333	7093.83
571.16272	7104.86
571.22211	7119.12
571.28149	7134.14
571.34088	7143.31
571.40027	7142.37
571.45972	7135.83
571.5191	7123.89
571.57849	7096.87
571.63788	7056.94
571.69727	7029
571.75665	7030.82
571.81604	7042.75
571.87543	7034.79
571.93481	7014.88
571.9942	7013.56
572.05359	7038.77
572.11298	7074.42
572.17236	7099.7
572.23175	7101.7
572.29114	7088.91
572.35052	7082.59
572.40991	7089.34
572.4693	7095.57
572.52869	7090.55
572.58807	7081.72
572.64752	7086.19
572.70691	7119.78
572.7663	7186.03
572.82568	7260.58
572.88507	7299.9
572.94446	7280.22
573.00385	7227.36
573.06323	7202.35
573.12262	7234.32
573.18201	7275.64
573.24139	7261.6
573.30078	7197.02
573.36017	7141.05
573.41956	7132.98
573.47894	7165.53
573.53833	7211.94
573.59772	7246.4
573.6571	7246.51
573.71649	7204.86
573.77588	7145.92
573.83533	7104.04
573.89471	7089.1
573.9541	7095.89
574.01349	7124.26
574.07288	7172.17
574.13226	7223.11
574.19165	7248.36
574.25104	7226.28
574.31042	7165.8
574.36981	7103.07
574.4292	7071.95
574.48859	7078.8
574.54797	7101.27
574.60736	7109.85
574.66675	7095.3
574.72614	7073.71
574.78552	7064.05
574.84491	7057.61
574.9043	7026.51
574.96368	6971.98
575.02313	6933.82
575.08252	6942.5
575.14191	6994.12
575.20129	7065.27
575.26068	7124.79
575.32007	7151.51
575.37946	7155.24
575.43884	7163.18
575.49823	7191.74
575.55762	7237.27
575.617	7271.61
575.67639	7258.2
575.73578	7203.57
575.79517	7169.25
575.85455	7202.57
575.91394	7277.13
575.97333	7322.84
576.03271	7295.21
576.0921	7204.83
576.15149	7098.66
576.21094	7020.06
576.27032	6978.5
576.32971	6960.14
576.3891	6968.04
576.44849	7029.42
576.50787	7135.35
576.56726	7201.12
576.62665	7153.27
576.68604	7028.12
576.74542	6932.97
576.80481	6939.06
576.8642	7031.78
576.92358	7130.72
576.98297	7170.78
577.04236	7162.48
577.10175	7151.75
577.16113	7153.23
577.22052	7148.92
577.27991	7119.76
577.33929	7072.46
577.39874	7034.76
577.45813	7021.59
577.51752	7020.38
577.5769	7010.07
577.63629	6982.68
577.69568	6951.59
577.75507	6945.67
577.81445	6983.22
577.87384	7046.61
577.93323	7097.2
577.99261	7111.41
578.052	7090.37
578.11139	7050.63
578.17078	7011.9
578.23016	6980.46
578.28955	6957.64
578.34894	6966.77
578.40833	7026.67
578.46771	7094
578.5271	7091.21
578.58655	7004.71
578.64594	6903
578.70532	6852.41
578.76471	6863.53
578.8241	6911.43
578.88348	6967.34
578.94287	7015.87
579.00226	7054.45
579.06165	7080.27
579.12103	7087.36
579.18042	7070.44
579.23981	7032.38
579.29919	6999.3
579.35858	7001.69
579.41797	7030.95
579.47736	7048.19
579.53674	7041.49
579.59613	7034.14
579.65552	7037.06
579.7149	7037.83
579.77435	7025.85
579.83374	7001.83
579.89313	6978.91
579.95251	6966.99
580.0119	6958.63
580.07129	6943.27
580.13068	6922.57
580.19006	6907.95
580.24945	6909.77
580.30884	6928.58
580.36823	6956.27
580.42761	6985.1
580.487	7009.68
580.54639	7021.05
580.60577	7013.6
580.66516	6998.72
580.72455	6990.44
580.78394	6981.97
580.84332	6961.79
580.90271	6945.97
580.96216	6966.24
581.02155	7033.17
581.08093	7133.84
581.14032	7247.33
581.19971	7334.5
581.25909	7344.31
581.31848	7270.33
581.37787	7178.91
581.43726	7138.64
581.49664	7138.88
581.55603	7126.61
581.61542	7091.4
581.6748	7062.17
581.73419	7056.12
581.79358	7075.22
581.85297	7119.03
581.91235	7166.27
581.97174	7173.09
582.03113	7119.91
582.09052	7042.96
582.14996	7001.69
582.20935	7020.77
582.26874	7062.28
582.32813	7066.1
582.38751	7020.6
582.4469	6963.91
582.50629	6924.78
582.56567	6899.74
582.62506	6874.76
582.68445	6844.65
582.74384	6816.67
582.80322	6803.5
582.86261	6821.42
582.922	6878.9
582.98138	6964.17
583.04077	7057.57
583.10016	7129.56
583.15955	7149.21
583.21893	7128.89
583.27838	7103.13
583.33777	7082.17
583.39716	7081.29
583.45654	7123.09
583.51593	7193.4
583.57532	7253.87
583.6347	7278.49
583.69409	7257
583.75348	7194.98
583.81287	7114.84
583.87225	7039.71
583.93164	6983.16
583.99103	6950.1
584.05042	6938.72
584.1098	6939.13
584.16919	6936.77
584.22858	6923.39
584.28796	6906.1
584.34735	6903.65
584.40674	6925.66
584.46619	6959.06
584.52557	6994.04
584.58496	7046.75
584.64435	7113.18
584.70374	7137.1
584.76312	7087.42
584.82251	7011.28
584.8819	6959.95
584.94128	6932.76
585.00067	6919.38
585.06006	6929.91
585.11945	6968.22
585.17883	7007.91
585.23822	7015.63
585.29761	6990.14
585.35699	6956.26
585.41638	6939.98
585.47577	6956.69
585.53516	6999.31
585.59454	7032.09
585.65399	7019.46
585.71338	6968.62
585.77277	6927.61
585.83215	6934.45
585.89154	6974.63
585.95093	7006.9
586.01031	7013.54
586.0697	7004.89
586.12909	6986.61
586.18848	6958.82
586.24786	6935.62
586.30725	6942.26
586.36664	6988.71
586.42603	7043.28
586.48541	7056.62
586.5448	7027.79
586.60419	7005.73
586.66357	7022.52
586.72296	7074.67
586.78235	7155.87
586.8418	7248.46
586.90118	7298.04
586.96057	7258.91
587.01996	7150.53
587.07935	7033.8
587.13873	6950.41
587.19812	6901.25
587.25751	6869.97
587.31689	6851.23
587.37628	6851.31
587.43567	6873.76
587.49506	6910.86
587.55444	6944.32
587.61383	6960.42
587.67322	6965.32
587.7326	6971.97
587.79199	6980.78
587.85138	6992.83
587.91077	7016.37
587.97015	7034.93
588.0296	7008.96
588.08899	6935.19
588.14838	6862.14
588.20776	6842.2
588.26715	6902.71
588.32654	7026.11
588.38593	7136.54
588.44531	7166.71
588.5047	7128.21
588.56409	7079.59
588.62347	7060.93
588.68286	7103.68
588.74225	7275.68
588.80164	7685.17
588.86102	8437.63
588.92041	9403.45
588.9798	9975.98
589.03918	9615.84
589.09857	8622.39
589.15796	7739.22
589.21741	7279.67
589.27679	7118.07
589.33618	7098.2
589.39557	7189.03
589.45496	7436.11
589.51434	7793.29
589.57373	8010
589.63312	7869.04
589.6925	7485.48
589.75189	7142.48
589.81128	6966.22
589.87067	6918.41
589.93005	6943
589.98944	7004.21
590.04883	7048.05
590.10822	7019.24
590.1676	6931.42
590.22699	6856.24
590.28638	6828.98
590.34576	6824.65
590.40521	6817.24
590.4646	6805.03
590.52399	6792.28
590.58337	6786.56
590.64276	6796.13
590.70215	6814.76
590.76154	6830.98
590.82092	6846.81
590.88031	6866.3
590.9397	6885.4
590.99908	6904.4
591.05847	6917.74
591.11786	6900.02
591.17725	6839.22
591.23663	6760.82
591.29602	6699.55
591.35541	6675.28
591.41479	6693.21
591.47418	6740.91
591.53357	6796.09
591.59302	6842.97
591.6524	6872.65
591.71179	6877.34
591.77118	6858.12
591.83057	6837.29
591.88995	6839.23
591.94934	6867.59
592.00873	6909.3
592.06812	6933.49
592.1275	6906.45
592.18689	6832.11
592.24628	6751.87
592.30566	6700.72
592.36505	6686.39
592.42444	6695.46
592.48383	6706.44
592.54321	6711.83
592.6026	6725.69
592.66199	6761.84
592.72137	6816.25
592.78082	6876.58
592.84021	6931.33
592.8996	6969.32
592.95898	6992.15
593.01837	7008.66
593.07776	7002.73
593.13715	6954.15
593.19653	6879.35
593.25592	6810.78
593.31531	6765.25
593.37469	6746.74
593.43408	6751.82
593.49347	6770.18
593.55286	6796.65
593.61224	6842.09
593.67163	6921.26
593.73102	7030.61
593.79041	7144.58
593.84979	7227.9
593.90918	7249.32
593.96863	7192.66
594.02802	7070.76
594.0874	6933.2
594.14679	6837.27
594.20618	6802.33
594.26556	6803.75
594.32495	6805.66
594.38434	6794.41
594.44373	6786.09
594.50311	6804.53
594.5625	6852.52
594.62189	6917.73
594.68127	6994.17
594.74066	7062.81
594.80005	7098.27
594.85944	7099.34
594.91882	7060.58
594.97821	6975.82
595.0376	6876.3
595.09698	6803.19
595.15643	6764.78
595.21582	6746.91
595.27521	6742.9
595.33459	6762.63
595.39398	6811.37
595.45337	6873.2
595.51276	6930.73
595.57214	6988.55
595.63153	7050.6
595.69092	7098.06
595.75031	7095.57
595.80969	7026.52
595.86908	6934.7
595.92847	6873.04
595.98785	6835.71
596.04724	6799.44
596.10663	6774.53
596.16602	6784.15
596.2254	6831.42
596.28479	6894.97
596.34424	6944.26
596.40363	6968.88
596.46301	6990.65
596.5224	7029.6
596.58179	7068.05
596.64117	7070.53
596.70056	7033.54
596.75995	6987.47
596.81934	6963.83
596.87872	6977.29
596.93811	7012.72
596.9975	7035.49
597.05688	7032.75
597.11627	7024.46
597.17566	7032.25
597.23505	7063.96
597.29443	7116.46
597.35382	7165.06
597.41321	7167.25
597.4726	7107.34
597.53204	7015.9
597.59143	6924.9
597.65082	6849.85
597.71021	6805.55
597.76959	6798.13
597.82898	6823.13
597.88837	6879.77
597.94775	6961.05
598.00714	7052.44
598.06653	7150.96
598.12592	7244.33
598.1853	7287.87
598.24469	7230.71
598.30408	7085.04
598.36346	6932.91
598.42285	6837.69
598.48224	6803.61
598.54163	6811.48
598.60101	6851.16
598.6604	6924.18
598.71985	7019.98
598.77924	7108.47
598.83862	7163.23
598.89801	7169.26
598.9574	7120.55
599.01678	7032.42
599.07617	6938.84
599.13556	6863.89
599.19495	6809.82
599.25433	6775.16
599.31372	6771.3
599.37311	6811.92
599.4325	6885.65
599.49188	6964.91
599.55127	7041.52
599.61066	7097
599.67004	7077.21
599.72943	6977.24
599.78882	6868.15
599.84821	6801.28
599.90765	6769.91
599.96704	6754.49
600.02643	6756.59
600.08582	6793.09
600.1452	6871.98
600.20459	6980.8
600.26398	7080.67
600.32336	7109.34
600.38275	7035.66
600.44214	6907.81
600.50153	6806.67
600.56091	6771.33
600.6203	6788.53
600.67969	6825.06
600.73907	6865.29
600.79846	6923.58
600.85785	7012.41
600.91724	7105.94
600.97662	7142.3
601.03601	7074.83
601.09546	6933.86
601.15485	6804.01
601.21423	6735.26
601.27362	6718.88
601.33301	6731.68
601.3924	6769.32
601.45178	6839.59
601.51117	6937.31
601.57056	7021.09
601.62994	7031.06
601.68933	6958.23
601.74872	6868.38
601.80811	6817.45
601.86749	6796.81
601.92688	6777.9
601.98627	6774.08
602.04565	6834.32
602.10504	6967.01
602.16443	7095.7
602.22382	7122.07
602.28326	7019.84
602.34265	6860.89
602.40204	6733.46
602.46143	6670.15
602.52081	6675.2
602.5802	6754.7
602.63959	6903.69
602.69897	7076.31
602.75836	7182.49
602.81775	7155.69
602.87714	7031.56
602.93652	6920.27
602.99591	6902.79
603.0553	6977.06
603.11469	7081.77
603.17407	7153.99
603.23346	7169.87
603.29285	7129.06
603.35223	7031.02
603.41162	6899
603.47107	6786.88
603.53046	6730.84
603.58984	6723.5
603.64923	6751.14
603.70862	6826.21
603.76801	6939.12
603.82739	7006.68
603.88678	6960.26
603.94617	6847.03
604.00555	6754.77
604.06494	6715.7
604.12433	6742.06
604.18372	6855.42
604.2431	7021.88
604.30249	7124.67
604.36188	7077.63
604.42126	6949.57
604.48065	6859.05
604.54004	6837.23
604.59943	6877.56
604.65887	6980.6
604.71826	7088.95
604.77765	7103.26
604.83704	7006.83
604.89642	6886.01
604.95581	6824.23
605.0152	6852.71
605.07458	6961.83
605.13397	7086.33
605.19336	7126.82
605.25275	7050.7
605.31213	6938.57
605.37152	6903.01
605.43091	6993.53
605.4903	7156.52
605.54968	7258.43
605.60907	7206.16
605.66846	7051.66
605.72784	6929.44
605.78723	6918.29
605.84668	6985.87
605.90607	7032.87
605.96545	6998.7
606.02484	6931.57
606.08423	6924.11
606.14362	6997.98
606.203	7084.8
606.26239	7104.96
606.32178	7054.2
606.38116	7000.62
606.44055	6998.4
606.49994	7032.78
606.55933	7057.03
606.61871	7061.15
606.6781	7076.89
606.73749	7122.18
606.79688	7187.5
606.85626	7249.42
606.91565	7268.8
606.97504	7223.26
607.03448	7147.17
607.09387	7084.96
607.15326	7038.77
607.21265	7018.63
607.27203	7051.49
607.33142	7098.88
607.39081	7096.43
607.4502	7057.28
607.50958	7018.94
607.56897	6978.66
607.62836	6938.37
607.68774	6920.8
607.74713	6939.63
607.80652	6979.51
607.86591	7001.65
607.92529	6975.73
607.98468	6903.96
608.04407	6817.21
608.10345	6755.26
608.16284	6740.77
608.22229	6763.83
608.28168	6801.13
608.34106	6843.96
608.40045	6884.02
608.45984	6896.57
608.51923	6870.56
608.57861	6824.12
608.638	6778.95
608.69739	6747.37
608.75677	6739.97
608.81616	6765.27
608.87555	6814.97
608.93494	6855.14
608.99432	6847.3
609.05371	6785.33
609.1131	6705.22
609.17249	6654.03
609.23187	6649.36
609.29126	6669.98
609.35065	6685
609.4101	6684.48
609.46948	6677.9
609.52887	6676.19
609.58826	6681.52
609.64764	6688.4
609.70703	6691.39
609.76642	6689.78
609.82581	6684.79
609.88519	6680.27
609.94458	6683.11
610.00397	6690.28
610.06335	6685.51
610.12274	6661.28
610.18213	6630.68
610.24152	6611.67
610.3009	6609.17
610.36029	6611.58
610.41968	6605.97
610.47906	6598.83
610.53845	6603.63
610.5979	6615.28
610.65729	6622.51
610.71667	6629.26
610.77606	6639.01
610.83545	6639.25
610.89484	6629.96
610.95422	6633.17
611.01361	6652.39
611.073	6667.13
611.13239	6662.18
611.19177	6632.76
611.25116	6589.98
611.31055	6558.67
611.36993	6549.89
611.42932	6556.37
611.48871	6570.65
611.5481	6592.07
611.60748	6626.11
611.66687	6682.14
611.72626	6757.91
611.78571	6823.71
611.84509	6840.08
611.90448	6801.89
611.96387	6746.92
612.02325	6708.45
612.08264	6681.68
612.14203	6652.89
612.20142	6627.51
612.2608	6611.25
612.32019	6598.3
612.37958	6592.25
612.43896	6609.75
612.49835	6656.69
612.55774	6715.79
612.61713	6754.89
612.67651	6753.2
612.7359	6726.52
612.79529	6705.74
612.85468	6695.59
612.91406	6680.93
612.97351	6659.41
613.0329	6642.39
613.09229	6635.18
613.15167	6639.85
613.21106	6673.26
613.27045	6752.89
613.32983	6859.98
613.38922	6934.09
613.44861	6924.37
613.508	6850.67
613.56738	6782.06
613.62677	6740.76
613.68616	6699.86
613.74554	6656.92
613.80493	6632.97
613.86432	6642.56
613.92371	6680.36
613.98309	6705.44
614.04248	6676.7
614.10187	6610.01
614.16132	6559.61
614.2207	6558.61
614.28009	6596.08
614.33948	6636.12
614.39886	6653.55
614.45825	6647.58
614.51764	6625.27
614.57703	6590.17
614.63641	6549.06
614.6958	6512.15
614.75519	6487.8
614.81458	6482.53
614.87396	6497
614.93335	6519.87
614.99274	6533.65
615.05212	6529.64
615.11151	6515.33
615.1709	6508.11
615.23029	6523.46
615.28967	6564.47
615.34912	6614.25
615.40851	6645.05
615.4679	6646.55
615.52728	6631.25
615.58667	6610.01
615.64606	6587.97
615.70544	6583.01
615.76483	6614.89
615.82422	6673.88
615.88361	6725.14
615.94299	6742.86
616.00238	6728.36
616.06177	6696.8
616.12115	6662.67
616.18054	6641.84
616.23993	6640.74
616.29932	6645.34
616.3587	6637.64
616.41809	6618.11
616.47748	6605.72
616.53693	6612.13
616.59631	6622.44
616.6557	6616.32
616.71509	6600.93
616.77448	6608.66
616.83386	6660.17
616.89325	6733.73
616.95264	6779.68
617.01202	6779.27
617.07141	6764.96
617.1308	6770.96
617.19019	6796.4
617.24957	6826.1
617.30896	6851.27
617.36835	6857.58
617.42773	6824.44
617.48712	6756.93
617.54651	6697.36
617.6059	6681.13
617.66528	6699.87
617.72473	6728.22
617.78412	6759.75
617.84351	6789.48
617.90289	6792.77
617.96228	6762.93
618.02167	6727.6
618.08105	6712.04
618.14044	6717.48
618.19983	6720.33
618.25922	6705.78
618.3186	6696.57
618.37799	6706.91
618.43738	6716.05
618.49677	6707.86
618.55615	6692.85
618.61554	6689.23
618.67493	6704.35
618.73431	6732.48
618.7937	6761.03
618.85309	6775.54
618.91254	6765.62
618.97192	6736.23
619.03131	6708.44
619.0907	6700.41
619.15009	6713.79
619.20947	6735.66
619.26886	6741.17
619.32825	6718.4
619.38763	6695.39
619.44702	6708.25
619.50641	6761.37
619.5658	6827.16
619.62518	6861.32
619.68457	6848.6
619.74396	6826.75
619.80334	6814.25
619.86273	6777.17
619.92212	6706.52
619.98151	6644.63
620.04089	6621.09
620.10034	6621.61
620.15973	6626.81
620.21912	6642.4
620.2785	6675.06
620.33789	6702.83
620.39728	6706.46
620.45667	6703.56
620.51605	6706.72
620.57544	6692.67
620.63483	6653.13
620.69421	6612.93
620.7536	6589.07
620.81299	6580.96
620.87238	6590.23
620.93176	6619.42
620.99115	6660.8
621.05054	6695.18
621.10992	6702.09
621.16931	6678.81
621.2287	6642.65
621.28815	6610.77
621.34753	6590.07
621.40692	6580.97
621.46631	6577.25
621.5257	6567.27
621.58508	6549.29
621.64447	6540.04
621.70386	6554.16
621.76324	6586.86
621.82263	6628.28
621.88202	6674.69
621.94141	6719.2
622.00079	6749.65
622.06018	6757.24
622.11957	6747.5
622.17896	6730.5
622.23834	6702.79
622.29773	6665.96
622.35712	6627.79
622.4165	6593.01
622.47595	6578.58
622.53534	6591.37
622.59473	6603.42
622.65411	6589.52
622.7135	6568.23
622.77289	6574.5
622.83228	6602.76
622.89166	6614.15
622.95105	6585.1
623.01044	6535.99
623.06982	6502.4
623.12921	6498.85
623.1886	6520.98
623.24799	6561.69
623.30737	6613.94
623.36676	6674.16
623.42615	6732.62
623.48553	6762.07
623.54492	6748.89
623.60431	6713.64
623.66376	6680.89
623.72314	6658.24
623.78253	6632.53
623.84192	6587.52
623.90131	6534.57
623.96069	6493.77
624.02008	6466.44
624.07947	6453.44
624.13885	6462.34
624.19824	6488.17
624.25763	6516.98
624.31702	6545.74
624.3764	6577.12
624.43579	6605.04
624.49518	6622.69
624.55457	6631.22
624.61395	6633.48
624.67334	6626.28
624.73273	6605.54
624.79211	6575.47
624.85156	6539.51
624.91095	6496.89
624.97034	6458.87
625.02972	6445.62
625.08911	6458.42
625.1485	6477.48
625.20789	6491.65
625.26727	6513.59
625.32666	6551.7
625.38605	6583.99
625.44543	6582.04
625.50482	6544.88
625.56421	6494.22
625.6236	6459.85
625.68298	6461.04
625.74237	6485.04
625.80176	6508.03
625.86115	6531.16
625.92053	6564.24
625.97992	6593.03
626.03937	6597.45
626.09875	6578.27
626.15814	6544.2
626.21753	6504.97
626.27692	6475.5
626.3363	6463.27
626.39569	6463.84
626.45508	6469.7
626.51447	6471.14
626.57385	6463.12
626.63324	6455.34
626.69263	6458.23
626.75201	6468.24
626.8114	6479.22
626.87079	6492.39
626.93018	6506.77
626.98956	6516.57
627.04895	6522.17
627.10834	6527.58
627.16772	6533.84
627.22717	6545.48
627.28656	6568.39
627.34595	6600.02
627.40533	6630.42
627.46472	6649.99
627.52411	6653
627.5835	6637.18
627.64288	6607.16
627.70227	6576.77
627.76166	6560.64
627.82104	6559.91
627.88043	6562.07
627.93982	6559.86
627.99921	6554.7
628.05859	6545.57
628.11798	6533.58
628.17737	6521.35
628.23676	6509.13
628.29614	6508.97
628.35553	6533.4
628.41498	6566.01
628.47437	6587.17
628.53375	6611.08
628.59314	6654.8
628.65253	6702.19
628.71191	6724.83
628.7713	6716.35
628.83069	6693.22
628.89008	6674.68
628.94946	6670.94
629.00885	6681.98
629.06824	6693.41
629.12762	6685.56
629.18701	6659.88
629.2464	6635.96
629.30579	6628.48
629.36517	6639.89
629.42456	6664.28
629.48395	6688.48
629.54333	6695.22
629.60278	6683.26
629.66217	6665.7
629.72156	6647.26
629.78094	6631.69
629.84033	6629.93
629.89972	6644.26
629.95911	6662.02
630.01849	6672.45
630.07788	6681.72
630.13727	6694.15
630.19666	6693.81
630.25604	6673.28
630.31543	6655.12
630.37482	6658.2
630.4342	6666.9
630.49359	6655.59
630.55298	6624.18
630.61237	6587.88
630.67175	6554.95
630.73114	6533.38
630.79059	6535.06
630.84998	6557.61
630.90936	6573.7
630.96875	6557.68
631.02814	6520.21
631.08752	6493.41
631.14691	6490.01
631.2063	6500.24
631.26569	6516.38
631.32507	6537.83
631.38446	6559.3
631.44385	6576.1
631.50323	6596.98
631.56262	6631.12
631.62201	6666.88
631.6814	6682.63
631.74078	6673.01
631.80017	6654.35
631.85956	6642.56
631.91895	6635.52
631.97839	6628.12
632.03778	6620.2
632.09717	6605.32
632.15656	6575.4
632.21594	6537.38
632.27533	6517.89
632.33472	6528.98
632.3941	6543.36
632.45349	6528.45
632.51288	6490.33
632.57227	6461.95
632.63165	6459.19
632.69104	6470.89
632.75043	6487.14
632.80981	6515.81
632.8692	6566.63
632.92859	6628.5
632.98798	6673.4
633.04736	6680.77
633.10675	6654.17
633.1662	6615.44
633.22559	6584.85
633.28497	6564.9
633.34436	6547.39
633.40375	6530.74
633.46313	6516.92
633.52252	6505.01
633.58191	6498.1
633.6413	6502.98
633.70068	6518.86
633.76007	6537.25
633.81946	6553.93
633.87885	6567.1
633.93823	6567.52
633.99762	6546.94
634.05701	6510.71
634.11639	6472.98
634.17578	6445.9
634.23517	6434.34
634.29456	6437.78
634.354	6456.69
634.41339	6486
634.47278	6507.94
634.53217	6510.13
634.59155	6502.88
634.65094	6500.71
634.71033	6502.83
634.76971	6509.86
634.8291	6533.23
634.88849	6566.58
634.94788	6577.36
635.00726	6548.34
635.06665	6494.89
635.12604	6443.19
635.18542	6411.88
635.24481	6400.52
635.3042	6398.01
635.36359	6402.52
635.42297	6419.02
635.48236	6445.48
635.54181	6468.14
635.6012	6471.25
635.66058	6456.56
635.71997	6440.84
635.77936	6430.63
635.83875	6418.57
635.89813	6403.75
635.95752	6395.6
636.01691	6397.38
636.07629	6402.69
636.13568	6410.98
636.19507	6429.02
636.25446	6450.78
636.31384	6459.77
636.37323	6458.84
636.43262	6468.48
636.492	6491.75
636.55139	6504.81
636.61078	6489.07
636.67017	6459.74
636.72961	6438.17
636.789	6420.91
636.84839	6403
636.90778	6394.54
636.96716	6399.11
637.02655	6413.43
637.08594	6445.69
637.14532	6486.63
637.20471	6489.55
637.2641	6433.73
637.32349	6361.04
637.38287	6319.37
637.44226	6317.12
637.50165	6338.93
637.56104	6368.29
637.62042	6390.19
637.67981	6394.77
637.7392	6384.9
637.79858	6371.38
637.85797	6360.6
637.91742	6352.91
637.97681	6348.58
638.03619	6347.9
638.09558	6351.84
638.15497	6365.88
638.21436	6394.78
638.27374	6433.84
638.33313	6470.71
638.39252	6499.04
638.4519	6522.72
638.51129	6530.69
638.57068	6498.13
638.63007	6433.13
638.68945	6374.06
638.74884	6342.26
638.80823	6337.06
638.86761	6357.83
638.927	6400.29
638.98639	6442.66
639.04578	6456.31
639.10522	6435.19
639.16461	6399.07
639.224	6372.74
639.28339	6371.07
639.34277	6390.71
639.40216	6413.25
639.46155	6423.35
639.52094	6421.69
639.58032	6422.53
639.63971	6440.19
639.6991	6481.59
639.75848	6541.92
639.81787	6593.18
639.87726	6598.93
639.93665	6557.21
639.99603	6504.1
640.05542	6472.3
640.11481	6469.96
640.17419	6488.33
640.23358	6510.51
640.29303	6521.1
640.35242	6516.21
640.4118	6504.74
640.47119	6497.4
640.53058	6493.76
640.58997	6486.96
640.64935	6479.09
640.70874	6480.95
640.76813	6492.65
640.82751	6497.68
640.8869	6494.12
640.94629	6504.44
641.00568	6532.69
641.06506	6553.34
641.12445	6557.09
641.18384	6560.52
641.24323	6563.91
641.30261	6544.52
641.362	6496.33
641.42139	6446.24
641.48083	6422.25
641.54022	6423.95
641.59961	6430.74
641.659	6437.57
641.71838	6458.88
641.77777	6498.27
641.83716	6539.11
641.89655	6561.02
641.95593	6558.65
642.01532	6546.51
642.07471	6538.67
642.13409	6541.31
642.19348	6560.02
642.25287	6581.36
642.31226	6573.69
642.37164	6529.88
642.43103	6478.01
642.49042	6447.53
642.5498	6447.87
642.60919	6474.6
642.66864	6514.85
642.72803	6545.65
642.78741	6546.63
642.8468	6518.75
642.90619	6483.12
642.96558	6457.79
643.02496	6442.33
643.08435	6434.71
643.14374	6439.22
643.20313	6451.94
643.26251	6473.32
643.3219	6523.31
643.38129	6618.2
643.44067	6709.75
643.50006	6711.47
643.55945	6631.76
643.61884	6558.41
643.67822	6522.52
643.73761	6500.87
643.79706	6484.66
643.85645	6478.61
643.91583	6483.22
643.97522	6496.55
644.03461	6512.22
644.09399	6520.44
644.15338	6515.22
644.21277	6495.23
644.27216	6465.42
644.33154	6439.7
644.39093	6433.71
644.45032	6454.69
644.5097	6500.36
644.56909	6554.18
644.62848	6577.32
644.68787	6543.8
644.74725	6487.11
644.80664	6460.97
644.86603	6471.48
644.92542	6495.24
644.98486	6513.99
645.04425	6510.82
645.10364	6477.97
645.16302	6436.47
645.22241	6418.16
645.2818	6430.84
645.34119	6458.2
645.40057	6478.14
645.45996	6476.24
645.51935	6457.35
645.57874	6442.36
645.63812	6451
645.69751	6484.53
645.7569	6515.08
645.81628	6515.71
645.87567	6494.35
645.93506	6470.22
645.99445	6449.66
646.05383	6437
646.11322	6438.25
646.17267	6451.32
646.23206	6463.84
646.29144	6463.91
646.35083	6451.09
646.41022	6434.61
646.4696	6421.89
646.52899	6413.48
646.58838	6410.21
646.64777	6422.65
646.70715	6463.42
646.76654	6522.89
646.82593	6560.08
646.88531	6542.29
646.9447	6490.18
647.00409	6446.6
647.06348	6423.31
647.12286	6408.89
647.18225	6396.5
647.24164	6385.01
647.30103	6375.88
647.36047	6377.18
647.41986	6392.86
647.47925	6410.26
647.53864	6411.99
647.59802	6397.15
647.65741	6383.27
647.7168	6393.01
647.77618	6436.11
647.83557	6486.19
647.89496	6495.28
647.95435	6457.2
648.01373	6407.04
648.07312	6367.44
648.13251	6350.27
648.19189	6356.63
648.25128	6367.49
648.31067	6360.6
648.37006	6334.13
648.42944	6307.44
648.48883	6296.45
648.54828	6300.7
648.60767	6310.6
648.66705	6319.31
648.72644	6336.04
648.78583	6375.31
648.84521	6419.88
648.9046	6425.65
648.96399	6381.76
649.02338	6325.9
649.08276	6295.43
649.14215	6298.14
649.20154	6323.85
649.26093	6356.56
649.32031	6376.9
649.3797	6374.91
649.43909	6358.67
649.49847	6340.53
649.55786	6325.57
649.61725	6316.82
649.67664	6322.14
649.73608	6349.01
649.79547	6390.63
649.85486	6422.37
649.91425	6422.49
649.97363	6393.88
650.03302	6354.27
650.09241	6318.09
650.15179	6300.81
650.21118	6315.92
650.27057	6350.44
650.32996	6372.94
650.38934	6374.47
650.44873	6368.1
650.50812	6362.31
650.5675	6359.65
650.62689	6372.44
650.68628	6417.29
650.74567	6477.91
650.80505	6503.07
650.86444	6476.55
650.92389	6438.84
650.98328	6421.37
651.04266	6421.73
651.10205	6431.8
651.16144	6448.06
651.22083	6463.27
651.28021	6468.24
651.3396	6463.98
651.39899	6457.46
651.45837	6450.21
651.51776	6447.31
651.57715	6464.4
651.63654	6504.13
651.69592	6534.8
651.75531	6522.05
651.8147	6474.14
651.87408	6430.09
651.93347	6416.9
651.99286	6433.11
652.05225	6458.27
652.11169	6469.13
652.17108	6457.39
652.23047	6436.33
652.28986	6424.82
652.34924	6431.72
652.40863	6459.4
652.46802	6505.67
652.5274	6548.56
652.58679	6555.37
652.64618	6523.83
652.70557	6480.38
652.76495	6445.95
652.82434	6428.14
652.88373	6427.25
652.94312	6430.13
653.0025	6418.06
653.06189	6401.97
653.12128	6413.54
653.18066	6456.75
653.24005	6513.34
653.2995	6572.09
653.35889	6611
653.41827	6600.63
653.47766	6552.83
653.53705	6512.94
653.59644	6503.92
653.65582	6517.22
653.71521	6534.62
653.7746	6535.24
653.83398	6512.23
653.89337	6493.3
653.95276	6512.48
654.01215	6567.41
654.07153	6630.32
654.13092	6671.85
654.19031	6676.41
654.24969	6654.36
654.30908	6626.48
654.36847	6603.79
654.42786	6595.83
654.4873	6615.12
654.54669	6657.7
654.60608	6696.72
654.66547	6712.57
654.72485	6718.07
654.78424	6753.55
654.84363	6842.25
654.90302	6938.6
654.9624	6982.65
655.02179	6989.39
655.08118	7006.2
655.14056	7047.83
655.19995	7104.75
655.25934	7171.21
655.31873	7244.15
655.37811	7324.27
655.4375	7426.38
655.49689	7569.5
655.55627	7757.53
655.61566	7976.39
655.67511	8217.97
655.7345	8508.85
655.79388	8904.25
655.85327	9461.48
655.91266	10287.3
655.97205	11772.2
656.03143	15040.5
656.09082	21948.2
656.15021	32842.3
656.20959	42993.2
656.26898	44731.3
656.32837	36390
656.38776	24677.1
656.44714	16189.5
656.50653	11958.6
656.56592	10150.4
656.62531	9302.59
656.68469	8784.12
656.74408	8384.26
656.80347	8082.25
656.86292	7885.03
656.9223	7741.87
656.98169	7599.64
657.04108	7459.53
657.10046	7334.39
657.15985	7234.41
657.21924	7169.87
657.27863	7126.31
657.33801	7077.7
657.3974	7018.91
657.45679	6964.1
657.51617	6925.35
657.57556	6918.12
657.63495	6972.56
657.69434	7081.11
657.75372	7145.26
657.81311	7067.39
657.8725	6890.46
657.93188	6741.88
657.99127	6678.06
658.05072	6673.98
658.11011	6699.44
658.16949	6734.52
658.22888	6740.52
658.28827	6685.65
658.34766	6601.43
658.40704	6547.36
658.46643	6532.04
658.52582	6520.71
658.58521	6490.72
658.64459	6451.07
658.70398	6419.33
658.76337	6397.12
658.82275	6382.12
658.88214	6382.76
658.94153	6399.15
659.00092	6410.9
659.0603	6399.29
659.11969	6372.92
659.17908	6357.39
659.23853	6356.72
659.29791	6352.08
659.3573	6344.66
659.41669	6354.63
659.47607	6374.77
659.53546	6374.97
659.59485	6350.4
659.65424	6322.52
659.71362	6313.02
659.77301	6332.88
659.8324	6370.17
659.89178	6391.46
659.95117	6379.68
660.01056	6355.29
660.06995	6342.95
660.12933	6348.48
660.18872	6366.21
660.24811	6375.71
660.3075	6360.17
660.36688	6334.62
660.42633	6319.55
660.48572	6320.08
660.5451	6329.55
660.60449	6326.35
660.66388	6300.11
660.72327	6274.21
660.78265	6274.1
660.84204	6290.75
660.90143	6297.78
660.96082	6291.81
661.0202	6290.99
661.07959	6304.62
661.13898	6324.48
661.19836	6339.02
661.25775	6345.31
661.31714	6346.85
661.37653	6345.58
661.43591	6341.71
661.4953	6335.8
661.55469	6325.85
661.61414	6311.18
661.67352	6299.71
661.73291	6300.94
661.7923	6314.31
661.85168	6327.62
661.91107	6326.09
661.97046	6307.9
662.02985	6288.48
662.08923	6282.36
662.14862	6285.7
662.20801	6287.11
662.2674	6286.86
662.32678	6290.31
662.38617	6295.09
662.44556	6299.15
662.50494	6308.05
662.56433	6322.36
662.62372	6331.77
662.68311	6327.75
662.74249	6312.2
662.80194	6300
662.86133	6303.8
662.92072	6312.22
662.9801	6313.72
663.03949	6317.62
663.09888	6324.99
663.15826	6318.52
663.21765	6295.65
663.27704	6276.41
663.33643	6274.34
663.39581	6286.48
663.4552	6301.88
663.51459	6311.14
663.57397	6309.75
663.63336	6302.67
663.69275	6302.69
663.75214	6314.14
663.81152	6326.53
663.87091	6331.99
663.9303	6331.12
663.98975	6324.53
664.04913	6317.36
664.10852	6311.51
664.16791	6298.5
664.22729	6280.67
664.28668	6269.63
664.34607	6269.64
664.40546	6278.75
664.46484	6291.47
664.52423	6298.92
664.58362	6295.67
664.64301	6288.02
664.70239	6288.07
664.76178	6297.66
664.82117	6308.36
664.88055	6314.7
664.93994	6316.79
664.99933	6317.62
665.05872	6324.41
665.1181	6341.92
665.17755	6361.34
665.23694	6363.79
665.29633	6340.6
665.35571	6305.99
665.4151	6280.3
665.47449	6269.51
665.53387	6268.7
665.59326	6268.06
665.65265	6260.06
665.71204	6251.32
665.77142	6255.67
665.83081	6271.81
665.8902	6283.12
665.94958	6282.65
666.00897	6276.79
666.06836	6279.93
666.12775	6301.66
666.18713	6334.24
666.24652	6362.42
666.30591	6368.95
666.36536	6353.12
666.42474	6335.84
666.48413	6332.15
666.54352	6340.04
666.60291	6344.43
666.66229	6334.33
666.72168	6312.46
666.78107	6290.46
666.84045	6278.15
666.89984	6275.11
666.95923	6275.76
667.01862	6276.88
667.078	6276.73
667.13739	6277
667.19678	6285.13
667.25616	6301.1
667.31555	6307.67
667.37494	6291.76
667.43433	6268.23
667.49371	6263.2
667.55316	6279.01
667.61255	6293.78
667.67194	6299.69
667.73132	6311.44
667.79071	6332.38
667.8501	6340.83
667.90948	6321.42
667.96887	6285.14
668.02826	6248.28
668.08765	6219.39
668.14703	6203.3
668.20642	6199.31
668.26581	6201.57
668.3252	6204.97
668.38458	6206.8
668.44397	6205.88
668.50336	6202.08
668.56274	6198.63
668.62213	6201.33
668.68152	6212.62
668.74097	6228.2
668.80035	6236.98
668.85974	6235.05
668.91913	6236.22
668.97852	6250.97
669.0379	6265.94
669.09729	6265.61
669.15668	6258.54
669.21606	6254.87
669.27545	6246.95
669.33484	6236.06
669.39423	6231
669.45361	6231.66
669.513	6230.77
669.57239	6219.02
669.63177	6203.51
669.69116	6195.82
669.75055	6197.42
669.80994	6206.89
669.86932	6219.28
669.92877	6229.99
669.98816	6241.56
670.04755	6252.97
670.10693	6254.32
670.16632	6243.39
670.22571	6230.91
670.2851	6222.63
670.34448	6213.73
670.40387	6205.08
670.46326	6209.77
670.52264	6238.68
670.58203	6282.51
670.64142	6307.94
670.70081	6290.59
670.76019	6249.25
670.81958	6220.25
670.87897	6214.19
670.93835	6210.83
670.99774	6189.06
671.05713	6156.29
671.11658	6134.67
671.17596	6131.58
671.23535	6139.11
671.29474	6148.54
671.35413	6156.91
671.41351	6162.29
671.4729	6160.67
671.53229	6153.71
671.59167	6148.25
671.65106	6148.38
671.71045	6155.39
671.76984	6165.24
671.82922	6171.35
671.88861	6177.3
671.948	6189.89
672.00739	6201.79
672.06677	6199.68
672.12616	6185.77
672.18555	6177.24
672.24493	6181
672.30438	6187.56
672.36377	6191.18
672.42316	6197.12
672.48254	6207.53
672.54193	6213
672.60132	6207.13
672.66071	6194.14
672.72009	6181.9
672.77948	6175.64
672.83887	6176.2
672.89825	6184.05
672.95764	6197.7
673.01703	6212.18
673.07642	6221.16
673.1358	6220.21
673.19519	6213.46
673.25458	6210.57
673.31396	6214.71
673.37335	6219.98
673.43274	6220.48
673.49219	6214.98
673.55157	6207.56
673.61096	6206.77
673.67035	6212.83
673.72974	6217.18
673.78912	6222.75
673.84851	6235.85
673.9079	6250.1
673.96729	6264.39
674.02667	6284.48
674.08606	6302.43
674.14545	6307.6
674.20483	6303.69
674.26422	6297.38
674.32361	6291.82
674.383	6292.83
674.44238	6300.33
674.50177	6299.98
674.56116	6282.55
674.62054	6260.04
674.67999	6248.44
674.73938	6248.52
674.79877	6252.2
674.85815	6257.62
674.91754	6268.22
674.97693	6282.28
675.03632	6295.99
675.0957	6306.37
675.15509	6305.04
675.21448	6288.84
675.27386	6268.5
675.33325	6256.72
675.39264	6265.67
675.45203	6296.46
675.51141	6322.29
675.5708	6331.79
675.63019	6334.46
675.68958	6321.36
675.74896	6298.56
675.80835	6282.19
675.8678	6274.16
675.92719	6272.37
675.98657	6275.3
676.04596	6280.7
676.10535	6281.52
676.16473	6270.96
676.22412	6258.25
676.28351	6254.97
676.3429	6257.03
676.40228	6258.13
676.46167	6259.61
676.52106	6261.88
676.58044	6262.88
676.63983	6261.97
676.69922	6258.7
676.75861	6254.01
676.81799	6252.64
676.87738	6260.77
676.93677	6279.46
676.99615	6301.31
677.0556	6316.11
677.11499	6316.79
677.17438	6304.18
677.23376	6288.28
677.29315	6278.99
677.35254	6278.18
677.41193	6280.5
677.47131	6275.5
677.5307	6261.45
677.59009	6250.81
677.64948	6252.42
677.70886	6265.15
677.76825	6272.08
677.82764	6259.75
677.88702	6241.24
677.94641	6228.62
678.0058	6230.15
678.06519	6241.59
678.12457	6247.65
678.18396	6250.03
678.24341	6257.43
678.3028	6263.29
678.36218	6260.42
678.42157	6257.15
678.48096	6261.51
678.54034	6268.65
678.59973	6273.67
678.65912	6269.43
678.71851	6250.47
678.77789	6229.96
678.83728	6227.93
678.89667	6246.89
678.95605	6268.33
679.01544	6274.65
679.07483	6266.41
679.13422	6253.11
679.1936	6240.17
679.25299	6227.75
679.31238	6213.31
679.37177	6196.89
679.43121	6185.62
679.4906	6187.97
679.54999	6198.63
679.60938	6201.48
679.66876	6192.04
679.72815	6183.27
679.78754	6187.28
679.84692	6198.21
679.90631	6201.31
679.9657	6193.39
680.02509	6183.83
680.08447	6183.79
680.14386	6190.63
680.20325	6194.66
680.26263	6198.22
680.32202	6206.08
680.38141	6218.17
680.4408	6229.87
680.50018	6232.43
680.55957	6220.89
680.61902	6199.74
680.67841	6184
680.73779	6184.9
680.79718	6191.36
680.85657	6185.52
680.91595	6171.52
680.97534	6167.41
681.03473	6176.13
681.09412	6182.04
681.1535	6174.51
681.21289	6161.25
681.27228	6156.06
681.33167	6161.75
681.39105	6168.39
681.45044	6168.93
681.50983	6168.32
681.56921	6172.74
681.6286	6178.4
681.68799	6177.14
681.74738	6168.85
681.80682	6159.68
681.86621	6156.34
681.9256	6165.91
681.98499	6184.57
682.04437	6198.01
682.10376	6197.64
682.16315	6187.87
682.22253	6178.22
682.28192	6169.85
682.34131	6159.26
682.4007	6152.75
682.46008	6155.23
682.51947	6157.22
682.57886	6155.61
682.63824	6155.91
682.69763	6157.04
682.75702	6152.32
682.81641	6141.8
682.87579	6132.92
682.93518	6129.57
682.99463	6129.88
683.05402	6129.75
683.1134	6128.27
683.17279	6130.8
683.23218	6140.45
683.29156	6151.92
683.35095	6156.18
683.41034	6148.74
683.46973	6136.68
683.52911	6132.73
683.5885	6139.7
683.64789	6148.4
683.70728	6151.76
683.76666	6152.89
683.82605	6156.17
683.88544	6158.07
683.94482	6152.53
684.00421	6142.57
684.0636	6138.1
684.12299	6141.72
684.18243	6147.73
684.24182	6152.24
684.30121	6154.56
684.3606	6155.84
684.41998	6159.48
684.47937	6164.58
684.53876	6165.87
684.59814	6165.03
684.65753	6167.82
684.71692	6170.33
684.77631	6168.18
684.83569	6171.34
684.89508	6182.22
684.95447	6193.28
685.01385	6207.15
685.07324	6228.41
685.13263	6255.47
685.19202	6281.03
685.2514	6290.73
685.31079	6276.54
685.37024	6248.89
685.42963	6224.55
685.48901	6212.76
685.5484	6215.69
685.60779	6229.3
685.66718	6242.4
685.72656	6247.68
685.78595	6248.26
685.84534	6244.5
685.90472	6234.82
685.96411	6227.57
686.0235	6225.09
686.08289	6219.34
686.14227	6215.86
686.20166	6222.13
686.26105	6229.06
686.32043	6231.43
686.37982	6234.22
686.43921	6235.81
686.4986	6233.7
686.55804	6232.88
686.61743	6235.51
686.67682	6237.63
686.73621	6237.82
686.79559	6238.98
686.85498	6240.55
686.91437	6235.83
686.97375	6223.4
687.03314	6215.59
687.09253	6221.6
687.15192	6230.2
687.2113	6225.55
687.27069	6213.21
687.33008	6214.08
687.38947	6231.56
687.44885	6245.2
687.50824	6244.43
687.56763	6238.28
687.62701	6242.15
687.6864	6257.84
687.74585	6269.36
687.80524	6270.64
687.86462	6262.36
687.92401	6247.09
687.9834	6236.74
688.04279	6231.83
688.10217	6231.93
688.16156	6240.11
688.22095	6247.07
688.28033	6248.12
688.33972	6248.81
688.39911	6249.61
688.4585	6248.65
688.51788	6248.05
688.57727	6249.98
688.63666	6253.1
688.69604	6252.78
688.75543	6244.9
688.81482	6232.75
688.87421	6224.41
688.93365	6219.52
688.99304	6215.65
689.05243	6219.24
689.11182	6226.75
689.1712	6222.94
689.23059	6209.35
689.28998	6202.62
689.34937	6207.67
689.40875	6210.53
689.46814	6198.57
689.52753	6179.24
689.58691	6170.2
689.6463	6177.19
689.70569	6189.73
689.76508	6197.91
689.82446	6202.54
689.88385	6209.72
689.94324	6219.55
690.00262	6222.37
690.06201	6215.62
690.12146	6209.61
690.18085	6209.35
690.24023	6212.15
690.29962	6215.27
690.35901	6217.19
690.4184	6218.57
690.47778	6218.85
690.53717	6216.74
690.59656	6214.73
690.65594	6211.89
690.71533	6203.1
690.77472	6188.82
690.83411	6174.81
690.89349	6164.9
690.95288	6158.49
691.01227	6154.53
691.07166	6154.25
691.13104	6158.67
691.19043	6166.18
691.24982	6176.45
691.30927	6184.86
691.36865	6176.86
691.42804	6154.26
691.48743	6141.14
691.54681	6151.97
691.6062	6165.38
691.66559	6160.37
691.72498	6157.19
691.78436	6169.19
691.84375	6186.67
691.90314	6204.32
691.96252	6224.92
692.02191	6243.31
692.0813	6248.65
692.14069	6237.82
692.20007	6215.9
692.25946	6193.45
692.31885	6180.91
692.37823	6175.37
692.43762	6164.88
692.49707	6147.77
692.55646	6132.69
692.61584	6125.44
692.67523	6125.92
692.73462	6130.96
692.79401	6137.52
692.85339	6145.32
692.91278	6153
692.97217	6155.88
693.03156	6150.8
693.09094	6138.07
693.15033	6120.23
693.20972	6105.08
693.2691	6103.69
693.32849	6116.43
693.38788	6127.95
693.44727	6128.1
693.50665	6130.6
693.56604	6139.35
693.62543	6140.73
693.68488	6146.99
693.74426	6145.34
693.80365	6126.37
693.86304	6105.33
693.92242	6098.53
693.98181	6112.47
694.0412	6124.65
694.10059	6117.42
694.15997	6106.5
694.21936	6103.58
694.27875	6101.45
694.33813	6099.19
694.39752	6100.12
694.45691	6100.23
694.5163	6094.35
694.57568	6083.25
694.63507	6071.51
694.69446	6063.87
694.75385	6062.74
694.81323	6067.48
694.87268	6077.94
694.93207	6092.01
694.99146	6104.07
695.05084	6115.54
695.11023	6130.51
695.16962	6142.69
695.229	6145.46
695.28839	6143.03
695.34778	6142.13
695.40717	6143.28
695.46655	6145.23
695.52594	6144.8
695.58533	6139.71
695.64471	6135.27
695.7041	6134.24
695.76349	6132.47
695.82288	6130.32
695.88226	6132.61
695.94165	6140.07
696.00104	6149.33
696.06049	6156.37
696.11987	6160.04
696.17926	6163.51
696.23865	6165.79
696.29803	6165.82
696.35742	6172.66
696.41681	6185.41
696.4762	6191.26
696.53558	6188.66
696.59497	6184.6
696.65436	6190.38
696.71375	6216.14
696.77313	6248.8
696.83252	6268.6
696.89191	6276.65
696.95129	6274.36
697.01068	6252.65
697.07007	6226.66
697.12946	6226.82
697.18884	6250.77
697.24829	6267.41
697.30768	6259.94
697.36707	6240.67
697.42645	6227.47
697.48584	6222.26
697.54523	6215.35
697.60461	6201.66
697.664	6186.56
697.72339	6181.7
697.78278	6190.58
697.84216	6201.77
697.90155	6206.27
697.96094	6205.54
698.02032	6199.03
698.07971	6191.6
698.1391	6193.54
698.19849	6199.51
698.25787	6203.73
698.31726	6210.61
698.37665	6216.71
698.4361	6221.84
698.49548	6233.22
698.55487	6246.3
698.61426	6256.27
698.67365	6268.41
698.73303	6280.75
698.79242	6282.87
698.85181	6273.9
698.91119	6262.49
698.97058	6255.9
699.02997	6257.03
699.08936	6263.57
699.14874	6267.77
699.20813	6260.18
699.26752	6241.27
699.3269	6222.41
699.38629	6213.74
699.44568	6216.87
699.50507	6223
699.56445	6222.3
699.6239	6217.41
699.68329	6215.87
699.74268	6216.88
699.80206	6217.33
699.86145	6219.47
699.92084	6226.01
699.98022	6237.17
700.03961	6249.61
700.099	6255.19
700.15839	6250.58
700.21777	6243.2
700.27716	6238.91
700.33655	6241.28
700.39594	6241.38
700.45532	6218.95
700.51471	6185.02
700.5741	6166.99
700.63348	6171.98
700.69287	6188.4
700.75226	6202.77
700.81171	6207.44
700.87109	6207.11
700.93048	6212.33
700.98987	6221.91
701.04926	6226.03
701.10864	6225.06
701.16803	6226.6
701.22742	6230.9
701.2868	6229.56
701.34619	6216.78
701.40558	6198.96
701.46497	6190.14
701.52435	6196
701.58374	6207.39
701.64313	6215.65
701.70251	6221.6
701.7619	6225.19
701.82129	6221.93
701.88068	6209.64
701.94006	6192.78
701.99951	6180.89
702.0589	6179.75
702.11829	6188.55
702.17767	6197.39
702.23706	6192.81
702.29645	6179.79
702.35583	6172.97
702.41522	6171.53
702.47461	6166.7
702.534	6165.08
702.59338	6179.87
702.65277	6201.9
702.71216	6207.86
702.77155	6197.17
702.83093	6189.69
702.89032	6191.62
702.94971	6191.43
703.00909	6182.41
703.06848	6170.42
703.12787	6173.04
703.18732	6200.3
703.2467	6225.97
703.30609	6220.11
703.36548	6194.96
703.42487	6174.69
703.48425	6162.87
703.54364	6157.61
703.60303	6157.76
703.66241	6157.92
703.7218	6153.39
703.78119	6144.94
703.84058	6138.53
703.89996	6136.86
703.95935	6137.54
704.01874	6137.34
704.07813	6132.52
704.13751	6123.13
704.1969	6117.55
704.25629	6122.98
704.31573	6134.17
704.37512	6141.58
704.43451	6143.95
704.4939	6144.52
704.55328	6146.95
704.61267	6154.75
704.67206	6162.38
704.73145	6162.04
704.79083	6156.64
704.85022	6144.34
704.90961	6122.07
704.96899	6106.31
705.02838	6108
705.08777	6115.4
705.14716	6122.49
705.20654	6130.67
705.26593	6133.52
705.32532	6126.14
705.3847	6112.08
705.44409	6099.52
705.50354	6096.1
705.56293	6103.92
705.62231	6118.27
705.6817	6129.75
705.74109	6133.94
705.80048	6136.36
705.85986	6140
705.91925	6143.08
705.97864	6143.62
706.03802	6138.66
706.09741	6128.19
706.1568	6116
706.21619	6106.12
706.27557	6099.09
706.33496	6097.36
706.39435	6106.8
706.45374	6121.27
706.51312	6128.31
706.57251	6129.11
706.6319	6132.28
706.69135	6136.53
706.75073	6138.99
706.81012	6141.94
706.86951	6144.94
706.92889	6148.55
706.98828	6156.64
707.04767	6164.9
707.10706	6165.48
707.16644	6164.99
707.22583	6172.55
707.28522	6180.79
707.3446	6184.4
707.40399	6185.35
707.46338	6180.9
707.52277	6173.59
707.58215	6170.4
707.64154	6174.4
707.70093	6182.28
707.76031	6189.03
707.8197	6195.19
707.87915	6199.8
707.93854	6200.59
707.99792	6202.5
708.05731	6211.68
708.1167	6228.98
708.17609	6250.95
708.23547	6266.45
708.29486	6263.73
708.35425	6251.55
708.41364	6253.53
708.47302	6270.67
708.53241	6280.04
708.5918	6269.59
708.65118	6250.98
708.71057	6246.64
708.76996	6252.74
708.82935	6245.72
708.88873	6229.48
708.94812	6226.24
709.00751	6233.07
709.06696	6231.2
709.12634	6227.61
709.18573	6226.73
709.24512	6223.87
709.3045	6224.76
709.36389	6233.05
709.42328	6252.07
709.48267	6271.18
709.54205	6268.02
709.60144	6250.3
709.66083	6241.79
709.72021	6239.61
709.7796	6234.33
709.83899	6232.72
709.89838	6239.48
709.95776	6246.63
710.01715	6252.26
710.07654	6256.31
710.13593	6253.61
710.19531	6247.9
710.25476	6242.74
710.31415	6235.62
710.37354	6228.13
710.43292	6225.54
710.49231	6232.58
710.5517	6249.54
710.61108	6267.82
710.67047	6271.81
710.72986	6255.01
710.78925	6231.21
710.84863	6213.94
710.90802	6208.21
710.96741	6211.21
711.02679	6213.64
711.08618	6213.53
711.14557	6213.77
711.20496	6212.45
711.26434	6210.89
711.32373	6217.22
711.38312	6233.25
711.44257	6253.75
711.50195	6274.08
711.56134	6288.56
711.62073	6288.68
711.68011	6275.29
711.7395	6263.81
711.79889	6260.17
711.85828	6251.93
711.91766	6234.52
711.97705	6222.87
712.03644	6224.75
712.09583	6226.55
712.15521	6220.36
712.2146	6217.49
712.27399	6225.41
712.33337	6235.82
712.39276	6236.8
712.45215	6221.99
712.51154	6202.91
712.57092	6199.99
712.63037	6214.97
712.68976	6230.38
712.74915	6234.26
712.80853	6243.77
712.86792	6259.73
712.92731	6255.72
712.98669	6232.03
713.04608	6210.54
713.10547	6205.04
713.16486	6212.55
713.22424	6216.06
713.28363	6205.91
713.34302	6189.35
713.4024	6173.77
713.46179	6163.45
713.52118	6160.06
713.58057	6159.32
713.63995	6161.15
713.69934	6169.48
713.75873	6185.06
713.81818	6208.91
713.87756	6240.87
713.93695	6266.24
713.99634	6266.31
714.05573	6245.32
714.11511	6220.78
714.1745	6199.42
714.23389	6181.84
714.29327	6173.24
714.35266	6177.97
714.41205	6190.01
714.47144	6197.03
714.53082	6194
714.59021	6184.92
714.6496	6171.31
714.70898	6157.31
714.76837	6156.49
714.82776	6171.67
714.88715	6187.05
714.94653	6190.1
715.00598	6184.73
715.06537	6168.81
715.12476	6156.52
715.18414	6168.9
715.24353	6185.59
715.30292	6193.29
715.3623	6215.81
715.42169	6276.01
715.48108	6381.56
715.54047	6497.26
715.59985	6535.34
715.65924	6463.21
715.71863	6355.99
715.77802	6284.48
715.8374	6250.41
715.89679	6227.56
715.95618	6210.63
716.01556	6219.74
716.07495	6260.05
716.13434	6298.9
716.19379	6308.43
716.25317	6301.9
716.31256	6304.02
716.37195	6314.86
716.43134	6321.71
716.49072	6318.91
716.55011	6303.92
716.6095	6283.83
716.66888	6273.62
716.72827	6272.44
716.78766	6267.93
716.84705	6270.22
716.90643	6289.27
716.96582	6301.98
717.02521	6297.81
717.08459	6285.19
717.14398	6269.76
717.20337	6260.87
717.26276	6257.46
717.32214	6247.44
717.38159	6232.95
717.44098	6222.49
717.50037	6218.19
717.55975	6220.68
717.61914	6227.48
717.67853	6235.61
717.73792	6247.33
717.7973	6260.82
717.85669	6260.73
717.91608	6240.39
717.97546	6218.68
718.03485	6210.23
718.09424	6208.3
718.15363	6210.59
718.21301	6232.64
718.2724	6279.17
718.33179	6320.06
718.39117	6325.09
718.45056	6309.13
718.50995	6306.35
718.5694	6319.04
718.62878	6322.58
718.68817	6305.16
718.74756	6281.01
718.80695	6266.79
718.86633	6264.79
718.92572	6271.13
718.98511	6273.63
719.04449	6254.15
719.10388	6238.13
719.16327	6251.61
719.22266	6288.9
719.28204	6332.31
719.34143	6349.68
719.40082	6348.63
719.46021	6346.67
719.51959	6341.19
719.57898	6335.78
719.63837	6332.17
719.69775	6327.27
719.7572	6327.97
719.81659	6339.69
719.87598	6358.36
719.93536	6374.79
719.99475	6380.99
720.05414	6377.83
720.11353	6370.4
720.17291	6367.65
720.2323	6376.86
720.29169	6391.12
720.35107	6396.27
720.41046	6385.58
720.46985	6366.1
720.52924	6351.5
720.58862	6344.05
720.64801	6339.99
720.7074	6344.92
720.76678	6362.52
720.82617	6379
720.88556	6387.79
720.94501	6387.25
721.00439	6368.04
721.06378	6346.48
721.12317	6342.53
721.18256	6354.8
721.24194	6370.48
721.30133	6387.4
721.36072	6405.55
721.4201	6418.64
721.47949	6412.8
721.53888	6394.95
721.59827	6390.47
721.65765	6392.49
721.71704	6381.69
721.77643	6361.41
721.83582	6342.1
721.8952	6330.13
721.95459	6332.16
722.01398	6346.45
722.07336	6356.66
722.13281	6360.41
722.1922	6369.13
722.25159	6376.32
722.31097	6365.48
722.37036	6346.2
722.42975	6340.55
722.48914	6349.08
722.54852	6354.65
722.60791	6345.87
722.6673	6331.65
722.72668	6314.83
722.78607	6302.51
722.84546	6322.11
722.90485	6371.72
722.96423	6411.05
723.02362	6411.6
723.08301	6395.33
723.1424	6386.73
723.20178	6382.1
723.26117	6380.38
723.32062	6385.37
723.38	6404.81
723.43939	6443.42
723.49878	6477.12
723.55817	6472.64
723.61755	6434.56
723.67694	6396.68
723.73633	6381.94
723.79572	6388.6
723.8551	6395.4
723.91449	6378.88
723.97388	6341.13
724.03326	6310.59
724.09265	6308.38
724.15204	6335.82
724.21143	6376.2
724.27081	6392.5
724.3302	6367.01
724.38959	6329.97
724.44897	6305.55
724.50842	6290.53
724.56781	6286.83
724.6272	6286.43
724.68658	6280.43
724.74597	6284.99
724.80536	6291.44
724.86475	6282.96
724.92413	6275.05
724.98352	6281.43
725.04291	6296.82
725.10229	6324.04
725.16168	6360.84
725.22107	6380.3
725.28046	6369.38
725.33984	6342.74
725.39923	6316.23
725.45862	6298.85
725.51801	6294.58
725.57739	6293.81
725.63678	6283.16
725.69623	6269.21
725.75562	6267.42
725.815	6276.45
725.87439	6290.45
725.93378	6319.1
725.99316	6368.49
726.05255	6405.6
726.11194	6392.99
726.17133	6341.8
726.23071	6287.52
726.2901	6261.91
726.34949	6259.64
726.40887	6262.4
726.46826	6257.62
726.52765	6251.55
726.58704	6260.44
726.64642	6275.07
726.70581	6279.9
726.7652	6280.74
726.82458	6279.28
726.88403	6267.32
726.94342	6255.59
727.00281	6258.9
727.06219	6266.72
727.12158	6264.63
727.18097	6262.47
727.24036	6269.37
727.29974	6268.25
727.35913	6249.16
727.41852	6228.51
727.47791	6224.74
727.53729	6238.51
727.59668	6247.32
727.65607	6236.48
727.71545	6222.31
727.77484	6219.33
727.83423	6222.71
727.89362	6229.17
727.953	6241.27
728.01239	6256.73
728.07184	6266.64
728.13123	6263.18
728.19061	6251.08
728.25	6243.28
728.30939	6241.27
728.36877	6228.61
728.42816	6214.07
728.48755	6217.14
728.54694	6232.23
728.60632	6248.31
728.66571	6265.05
728.7251	6284.05
728.78448	6304
728.84387	6320.59
728.90326	6322.79
728.96265	6313.41
729.02203	6305.7
729.08142	6297.42
729.14081	6284.82
729.2002	6278.01
729.25964	6287.5
729.31903	6309.49
729.37842	6327.82
729.43781	6333.51
729.49719	6329.56
729.55658	6319.27
729.61597	6305.43
729.67535	6296.83
729.73474	6301.9
729.79413	6316.37
729.85352	6333.36
729.9129	6356.09
729.97229	6377.8
730.03168	6376.74
730.09106	6352.68
730.15045	6331.16
730.20984	6330.61
730.26923	6346.4
730.32861	6360.94
730.388	6364.82
730.44745	6363.49
730.50684	6367.72
730.56622	6386.34
730.62561	6422.07
730.685	6460.27
730.74438	6466.57
730.80377	6435.15
730.86316	6412.72
730.92255	6418.16
730.98193	6418.82
731.04132	6402.49
731.10071	6397.49
731.1601	6416.12
731.21948	6439.2
731.27887	6446.34
731.33826	6439.8
731.39764	6432.77
731.45703	6428.03
731.51642	6430.22
731.57581	6440.25
731.63525	6447.49
731.69464	6441.67
731.75403	6427.61
731.81342	6418.12
731.8728	6405.31
731.93219	6381.91
731.99158	6362.6
732.05096	6364.06
732.11035	6382.63
732.16974	6396.15
732.22913	6395.45
732.28851	6392.05
732.3479	6393.85
732.40729	6396.97
732.46667	6403.15
732.52606	6427.94
732.58545	6476.09
732.64484	6523.02
732.70422	6536.57
732.76361	6504.51
732.82306	6447.34
732.88245	6410.44
732.94183	6409.62
733.00122	6412.65
733.06061	6399.96
733.12	6387.13
733.17938	6384.49
733.23877	6400.28
733.29816	6418.31
733.35754	6408.88
733.41693	6385.22
733.47632	6381.52
733.53571	6396.17
733.59509	6413.73
733.65448	6431.13
733.71387	6435.85
733.77325	6422.35
733.83264	6406.8
733.89203	6406.26
733.95142	6419.49
734.01086	6438.32
734.07025	6453.37
734.12964	6443.4
734.18903	6409.9
734.24841	6384.24
734.3078	6379.82
734.36719	6387.23
734.42657	6399.27
734.48596	6412.15
734.54535	6415.34
734.60474	6410.13
734.66412	6405.21
734.72351	6411.36
734.7829	6438.52
734.84229	6467.97
734.90167	6482.18
734.96106	6480.25
735.02045	6468.44
735.07983	6450.74
735.13922	6424.72
735.19867	6407.18
735.25806	6417.94
735.31744	6444.16
735.37683	6460.53
735.43622	6462.27
735.49561	6459.41
735.55499	6453.11
735.61438	6446.33
735.67377	6447.95
735.73315	6447.01
735.79254	6436.25
735.85193	6439.63
735.91132	6463.63
735.9707	6474.16
736.03009	6452.47
736.08948	6418.85
736.14886	6392.48
736.20825	6377.77
736.26764	6376.03
736.32703	6381.8
736.38647	6389.3
736.44586	6401.66
736.50525	6415.07
736.56464	6416.65
736.62402	6406.97
736.68341	6393.77
736.7428	6380.92
736.80219	6374.54
736.86157	6372.75
736.92096	6367.34
736.98035	6367.35
737.03973	6391.1
737.09912	6423.33
737.15851	6425.31
737.2179	6409.32
737.27728	6400.2
737.33667	6392.8
737.39606	6407.8
737.45544	6423.57
737.51483	6397.72
737.57428	6356.47
737.63367	6330.3
737.69305	6325.8
737.75244	6321.86
737.81183	6300.86
737.87122	6286.27
737.9306	6293.63
737.98999	6305.76
738.04938	6311.15
738.10876	6307.68
738.16815	6314.97
738.22754	6338.38
738.28693	6355.25
738.34631	6352.46
738.4057	6340.93
738.46509	6333.48
738.52448	6328.78
738.58386	6317.92
738.64325	6301.46
738.70264	6290.69
738.76208	6296.16
738.82147	6320.17
738.88086	6347.6
738.94025	6355.21
738.99963	6339.71
739.05902	6317.79
739.11841	6297.75
739.1778	6281.97
739.23718	6276.01
739.29657	6273.49
739.35596	6272.12
739.41534	6275.22
739.47473	6283.65
739.53412	6302.09
739.59351	6316.12
739.65289	6310.33
739.71228	6292.27
739.77167	6272.88
739.83105	6256.54
739.89044	6249.35
739.94989	6264.77
740.00928	6289.59
740.06866	6293.46
740.12805	6274.34
740.18744	6255.91
740.24683	6261.46
740.30621	6288.27
740.3656	6304
740.42499	6295.7
740.48438	6289.4
740.54376	6302.43
740.60315	6320.57
740.66254	6329.66
740.72192	6329.4
740.78131	6322.36
740.8407	6314.03
740.90009	6308.86
740.95947	6310.33
741.01886	6326.17
741.07825	6347.3
741.1377	6351.74
741.19708	6342.41
741.25647	6337.78
741.31586	6341.23
741.37524	6348.16
741.43463	6349.35
741.49402	6335.83
741.55341	6319.51
741.61279	6318.62
741.67218	6329.76
741.73157	6339.66
741.79095	6356.43
741.85034	6380.26
741.90973	6384.2
741.96912	6376.71
742.0285	6384.35
742.08789	6399.47
742.14728	6410.53
742.20667	6415.14
742.26605	6410
742.3255	6393.51
742.38489	6372.35
742.44427	6360.64
742.50366	6359.07
742.56305	6361.04
742.62244	6361.71
742.68182	6362.86
742.74121	6365.87
742.8006	6366.52
742.85999	6364.95
742.91937	6361.26
742.97876	6354.39
743.03815	6347.28
743.09753	6343.61
743.15692	6351.7
743.21631	6366.84
743.2757	6371.02
743.33508	6369.1
743.39447	6378.74
743.45386	6397.34
743.51331	6405.52
743.57269	6405.64
743.63208	6405.06
743.69147	6399.32
743.75085	6400.04
743.81024	6402.62
743.86963	6420.7
743.92902	6459.8
743.9884	6474.34
744.04779	6445.65
744.10718	6399.93
744.16656	6360.58
744.22595	6350.14
744.28534	6363.92
744.34473	6365.01
744.40411	6357.04
744.4635	6373.7
744.52289	6402.05
744.58228	6409.82
744.64166	6399.03
744.70111	6391.59
744.7605	6393.8
744.81989	6407.9
744.87927	6426.71
744.93866	6422.67
744.99805	6390.45
745.05743	6358.07
745.11682	6341.37
745.17621	6339.51
745.2356	6360.51
745.29498	6398.81
745.35437	6414.79
745.41376	6401.22
745.47314	6398.52
745.53253	6406.47
745.59192	6380.75
745.65131	6340.91
745.71069	6343.8
745.77008	6383.99
745.82947	6415.24
745.88892	6419.52
745.9483	6406.99
746.00769	6393.44
746.06708	6393.42
746.12646	6401.53
746.18585	6399.08
746.24524	6386.7
746.30463	6381.94
746.36401	6400.55
746.4234	6439.75
746.48279	6452.47
746.54218	6411.94
746.60156	6372.97
746.66095	6394.96
746.72034	6447.11
746.77972	6462.29
746.83911	6455.48
746.8985	6462.02
746.95789	6446.02
747.01727	6406.52
747.07672	6383.02
747.13611	6369.39
747.1955	6349.86
747.25488	6335.77
747.31427	6350.81
747.37366	6385.53
747.43304	6393.48
747.49243	6370.44
747.55182	6361.9
747.61121	6375.48
747.67059	6376.31
747.72998	6360.63
747.78937	6357.88
747.84875	6368.44
747.90814	6369.19
747.96753	6363.7
748.02692	6369.33
748.0863	6378.11
748.14569	6367.31
748.20508	6335.74
748.26453	6299.53
748.32391	6275.65
748.3833	6277.94
748.44269	6295.19
748.50208	6303.58
748.56146	6292.09
748.62085	6275.56
748.68024	6270.98
748.73962	6275.09
748.79901	6276.85
748.8584	6278.55
748.91779	6283.58
748.97717	6289.56
749.03656	6298.12
749.09595	6302.43
749.15533	6292.58
749.21472	6275.01
749.27411	6256.12
749.3335	6239.1
749.39288	6232.81
749.45233	6239.63
749.51172	6258.08
749.57111	6281.91
749.63049	6291.02
749.68988	6282.81
749.74927	6290.95
749.80865	6322.58
749.86804	6313.3
749.92743	6264.27
749.98682	6248.08
750.0462	6258.65
750.10559	6255.37
750.16498	6244.69
750.22437	6259.64
750.28375	6278.96
750.34314	6266.82
750.40253	6264.64
750.46191	6269.74
750.5213	6252.31
750.58069	6240.54
750.64014	6252.07
750.69952	6270.55
750.75891	6276.31
750.8183	6255.11
750.87769	6220.78
750.93707	6203.29
750.99646	6206.87
751.05585	6215.35
751.11523	6223.79
751.17462	6235.75
751.23401	6242.84
751.2934	6237.73
751.35278	6229.9
751.41217	6227.73
751.47156	6230.34
751.53094	6240.48
751.59033	6254.77
751.64972	6256.18
751.70911	6235.09
751.76849	6213.51
751.82794	6220.91
751.88733	6246.77
751.94672	6270.37
752.0061	6289.75
752.06549	6320.78
752.12488	6349.22
752.18427	6358.8
752.24365	6342.15
752.30304	6332.34
752.36243	6345.57
752.42181	6364.04
752.4812	6366.72
752.54059	6359.11
752.59998	6358.78
752.65936	6365.02
752.71875	6360.65
752.77814	6335.96
752.83752	6309.44
752.89691	6307.74
752.9563	6328.13
753.01575	6350.59
753.07513	6358.76
753.13452	6341.81
753.19391	6316.52
753.2533	6305.8
753.31268	6308.96
753.37207	6328.93
753.43146	6356.44
753.49084	6366.31
753.55023	6355.51
753.60962	6356.53
753.66901	6408.06
753.72839	6449.18
753.78778	6460.61
753.84717	6429.14
753.90656	6384.83
753.96594	6375.44
754.02533	6376.13
754.08472	6375.53
754.1441	6377.78
754.20355	6384.62
754.26294	6382.18
754.32233	6371.8
754.38171	6380.75
754.4411	6403.03
754.50049	6401.04
754.55988	6370.16
754.61926	6343.55
754.67865	6338.18
754.73804	6343.05
754.79742	6347.28
754.85681	6347.55
754.9162	6346.33
754.97559	6346.7
755.03497	6340.78
755.09436	6328.9
755.15375	6327.33
755.21313	6332.41
755.27252	6338.27
755.33191	6354.01
755.39136	6382.66
755.45074	6402.71
755.51013	6398.38
755.56952	6383.06
755.62891	6382.93
755.68829	6385.16
755.74768	6370.98
755.80707	6360.32
755.86646	6364.24
755.92584	6374.6
755.98523	6377.77
756.04462	6391.24
756.104	6400.33
756.16339	6375.38
756.22278	6363.55
756.28217	6372.74
756.34155	6394.42
756.40094	6432.86
756.46033	6461.21
756.51971	6449.5
756.57916	6420.89
756.63855	6411.82
756.69794	6413.78
756.75732	6400.52
756.81671	6379.67
756.8761	6367.04
756.93549	6354.29
756.99487	6344.78
757.05426	6355.92
757.11365	6378.4
757.17303	6388.1
757.23242	6384.49
757.29181	6377.78
757.3512	6378.25
757.41058	6394.17
757.46997	6406.3
757.52936	6399.75
757.58875	6386.3
757.64813	6365.14
757.70752	6342.57
757.76697	6343.84
757.82635	6372.08
757.88574	6393.22
757.94513	6377.14
758.00452	6343.77
758.0639	6326.73
758.12329	6333.24
758.18268	6350.44
758.24207	6357.77
758.30145	6364.44
758.36084	6383.99
758.42023	6395.76
758.47961	6378.83
758.539	6347.94
758.59839	6320.67
758.65778	6303.22
758.71716	6309.05
758.77655	6338.05
758.83594	6364.27
758.89532	6370.38
758.95477	6352.4
759.01416	6314.83
759.07355	6294.38
759.13293	6310.02
759.19232	6337.87
759.25171	6361.42
759.3111	6376.76
759.37048	6376.56
759.42987	6355.98
759.48926	6326.18
759.54865	6312.23
759.60803	6328.66
759.66742	6367.39
759.72681	6387.88
759.78619	6366.39
759.84558	6329.49
759.90497	6308.69
759.96436	6307.71
760.02374	6321.47
760.08313	6338.09
760.14258	6340.42
760.20197	6336.87
760.26135	6331.16
760.32074	6310.15
760.38013	6285.09
760.43951	6279.88
760.4989	6301.67
760.55829	6327.36
760.61768	6334.25
760.67706	6313.94
760.73645	6275.62
760.79584	6246.63
760.85522	6235.24
760.91461	6239.35
760.974	6250.26
761.03339	6259.29
761.09277	6266.96
761.15216	6262.51
761.21155	6249.95
761.27094	6247.14
761.33038	6258.66
761.38977	6276.79
761.44916	6291.31
761.50854	6292.15
761.56793	6281.28
761.62732	6265.85
761.68671	6248.27
761.74609	6245.9
761.80548	6259.27
761.86487	6257.54
761.92426	6242.7
761.98364	6230.89
762.04303	6217.34
762.10242	6218.71
762.1618	6257.44
762.22119	6292.29
762.28058	6276.15
762.33997	6249.77
762.39935	6248.26
762.45874	6253.35
762.51819	6262.13
762.57758	6280.53
762.63696	6291.74
762.69635	6280.14
762.75574	6263.16
762.81512	6267.25
762.87451	6292.19
762.9339	6315.74
762.99329	6354.01
763.05267	6392.61
763.11206	6377.18
763.17145	6336.64
763.23083	6318.22
763.29022	6307.97
763.34961	6292.42
763.409	6281.64
763.46838	6278.91
763.52777	6281.34
763.58716	6279.56
763.64655	6282.48
763.70599	6301.46
763.76538	6321.81
763.82477	6328.62
763.88416	6343.1
763.94354	6393.44
764.00293	6439.55
764.06232	6437.08
764.1217	6417.37
764.18109	6416.19
764.24048	6431.97
764.29987	6442.38
764.35925	6430.11
764.41864	6406.44
764.47803	6403.48
764.53741	6434.49
764.5968	6473.56
764.65619	6494.74
764.71558	6475.05
764.77496	6430.12
764.83435	6413.36
764.8938	6417.33
764.95319	6422.97
765.01257	6434.64
765.07196	6454.91
765.13135	6449.57
765.19073	6448.14
765.25012	6472.95
765.30951	6471.92
765.3689	6451.64
765.42828	6418.97
765.48767	6392.54
765.54706	6387.91
765.60645	6384.66
765.66583	6397.2
765.72522	6430.16
765.78461	6449.73
765.84399	6458.17
765.90338	6488.92
765.96277	6538.8
766.02222	6569.65
766.0816	6574.02
766.14099	6575.59
766.20038	6627.35
766.25977	6851.59
766.31915	7368.36
766.37854	7855.76
766.43793	7712.61
766.49731	7094.63
766.5567	6643.94
766.61609	6493.47
766.67548	6477.71
766.73486	6509.77
766.79425	6527.79
766.85364	6500.89
766.91302	6452.1
766.97241	6414.44
767.0318	6403.96
767.09119	6422.54
767.15057	6434.21
767.21002	6416.66
767.26941	6413.18
767.3288	6441.72
767.38818	6461.64
767.44757	6417.04
767.50696	6363.37
767.56635	6356.35
767.62573	6368.97
767.68512	6397.19
767.74451	6425.25
767.80389	6426.16
767.86328	6410.03
767.92267	6397.92
767.98206	6398.85
768.04144	6420.42
768.10083	6443.79
768.16022	6426.17
768.2196	6396.51
768.27899	6387.38
768.33838	6390.81
768.39783	6408.83
768.45721	6417.14
768.5166	6405.88
768.57599	6397.15
768.63538	6391.52
768.69476	6375.57
768.75415	6356.25
768.81354	6352.45
768.87292	6358.82
768.93231	6364.21
768.9917	6383.07
769.05109	6434.3
769.11047	6490.65
769.16986	6495.38
769.22925	6448.04
769.28864	6412.69
769.34802	6412.71
769.40741	6391.9
769.4668	6348.59
769.52618	6345.85
769.58563	6392.04
769.64502	6525.45
769.70441	6840.13
769.76379	7199.5
769.82318	7161.9
769.88257	6776
769.94196	6521.67
770.00134	6433.78
770.06073	6389.16
770.12012	6374.07
770.1795	6364.1
770.23889	6339.98
770.29828	6342.11
770.35767	6374.43
770.41705	6396
770.47644	6419.14
770.53583	6457.01
770.59521	6465.52
770.6546	6418.45
770.71399	6360.13
770.77344	6328.17
770.83282	6310.72
770.89221	6301.25
770.9516	6309.2
771.01099	6331.4
771.07037	6356.01
771.12976	6360.29
771.18915	6333.66
771.24854	6310.66
771.30792	6314.65
771.36731	6329.88
771.4267	6348.48
771.48608	6385.55
771.54547	6414.27
771.60486	6409.44
771.66425	6378.58
771.72363	6350.08
771.78302	6360.22
771.84241	6403.17
771.90179	6421.11
771.96124	6395.32
772.02063	6369.61
772.08002	6379.24
772.1394	6406.99
772.19879	6408.93
772.25818	6374.07
772.31757	6327.44
772.37695	6288.57
772.43634	6271.7
772.49573	6299.92
772.55511	6346.35
772.6145	6367.76
772.67389	6377.08
772.73328	6402.57
772.79266	6418.64
772.85205	6390.49
772.91144	6351.71
772.97083	6350.81
773.03021	6376.75
773.0896	6390.68
773.14905	6374.05
773.20844	6344.07
773.26782	6320.03
773.32721	6302.44
773.3866	6296.41
773.44598	6310.73
773.50537	6336.56
773.56476	6352.74
773.62415	6346.47
773.68353	6328.32
773.74292	6318.9
773.80231	6330.85
773.86169	6349.55
773.92108	6378.73
773.98047	6410.09
774.03986	6406.14
774.09924	6386.79
774.15863	6377.04
774.21802	6371.8
774.2774	6368.55
774.33685	6394.44
774.39624	6451.38
774.45563	6470.24
774.51501	6419.37
774.5744	6355.24
774.63379	6333.47
774.69318	6351.56
774.75256	6402.39
774.81195	6455.09
774.87134	6463.78
774.93073	6444.26
774.99011	6427.39
775.0495	6409.38
775.10889	6410.34
775.16827	6448.89
775.22766	6481.9
775.28705	6471.49
775.34644	6448.54
775.40582	6448.17
775.46521	6480.33
775.52466	6525.35
775.58405	6532.41
775.64343	6493.58
775.70282	6458.05
775.76221	6454.17
775.82159	6484.07
775.88098	6534.32
775.94037	6553.94
775.99976	6515.74
776.05914	6466.97
776.11853	6441.49
776.17792	6451.32
776.2373	6474.66
776.29669	6471.99
776.35608	6461.11
776.41547	6461.01
776.47485	6473.3
776.53424	6486.9
776.59363	6468.69
776.65302	6453.48
776.71246	6468.17
776.77185	6494.57
776.83124	6503.68
776.89063	6531.5
776.95001	6665.92
777.0094	6965.23
777.06879	7214.03
777.12817	7089.3
777.18756	6902.09
777.24695	7032.72
777.30634	7170.85
777.36572	7067.48
777.42511	6906.75
777.4845	6758.31
777.54388	6646.84
777.60327	6604.11
777.66266	6560.02
777.72205	6513.89
777.78143	6505.57
777.84082	6507.4
777.90027	6500.87
777.95966	6503.7
778.01904	6519.12
778.07843	6525.85
778.13782	6510.95
778.1972	6497.84
778.25659	6503.86
778.31598	6506.8
778.37537	6496.7
778.43475	6486.95
778.49414	6478.65
778.55353	6438.13
778.61292	6390.56
778.6723	6378.24
778.73169	6389.52
778.79108	6420.25
778.85046	6447.43
778.90985	6445.77
778.96924	6408.54
779.02863	6380.34
779.08807	6374.36
779.14746	6363.83
779.20685	6350.62
779.26624	6371.93
779.32562	6402.25
779.38501	6405.78
779.4444	6403.99
779.50378	6413.65
779.56317	6412.58
779.62256	6407.09
779.68195	6424.24
779.74133	6456.89
779.80072	6469.59
779.86011	6447.4
779.91949	6407.52
779.97888	6373.83
780.03827	6357.44
780.09766	6367.71
780.15704	6401.54
780.21643	6430.15
780.27588	6442.58
780.33527	6430.8
780.39465	6411.45
780.45404	6411.25
780.51343	6407.07
780.57281	6388.73
780.6322	6355.15
780.69159	6375.35
780.75098	6364.17
780.81036	6338.01
780.86975	6354.42
780.92914	6338.58
780.98853	6343.5
781.04791	6408.09
781.1073	6438.75
781.16669	6445.34
781.22607	6449.9
781.28546	6408.36
781.34485	6352
781.40424	6337.17
781.46368	6331.77
781.52307	6325.87
781.58246	6328.81
781.64185	6339.95
781.70123	6337.54
781.76062	6335.91
781.82001	6357.87
781.87939	6392.29
781.93878	6413.79
781.99817	6406.25
782.05756	6378.48
782.11694	6361.54
782.17633	6377.17
782.23572	6402.94
782.2951	6403.29
782.35449	6390.33
782.41388	6383.12
782.47327	6380.07
782.53265	6379.43
782.59204	6387.18
782.65149	6388.58
782.71088	6363.67
782.77026	6327.4
782.82965	6304.2
782.88904	6315.3
782.94843	6318.96
783.00781	6339.46
783.0672	6378.93
783.12659	6434.52
783.18597	6396.92
783.24536	6373.52
783.30475	6358.3
783.36414	6363.41
783.42352	6365.7
783.48291	6351.55
783.5423	6355.3
783.60168	6387.67
783.66107	6422.34
783.72046	6424.96
783.77985	6401.26
783.83929	6387.42
783.89868	6400.98
783.95807	6425.09
784.01746	6420.51
784.07684	6375.7
784.13623	6319.96
784.19562	6281.17
784.255	6267.47
784.31439	6280.4
784.37378	6322.69
784.43317	6358.18
784.49255	6355.73
784.55194	6339.72
784.61133	6341.95
784.67072	6350.72
784.7301	6337.72
784.78949	6338.42
784.84888	6350.87
784.90826	6353.25
784.96765	6344.21
785.0271	6339.28
785.08649	6340.88
785.14587	6333.8
785.20526	6331.84
785.26465	6355.65
785.32404	6368.76
785.38342	6367.11
785.44281	6364.93
785.5022	6361.02
785.56158	6361.42
785.62097	6387.15
785.68036	6410.72
785.73975	6396.61
785.79913	6373.44
785.85852	6372.09
785.91791	6391.92
785.97729	6418.65
786.03668	6435.63
786.09607	6439.67
786.15546	6449.36
786.2149	6450.36
786.27429	6442.54
786.33368	6462.5
786.39307	6479.98
786.45245	6444.03
786.51184	6406.71
786.57123	6408.15
786.63062	6425
786.69	6445.44
786.74939	6462.13
786.80878	6469.97
786.86816	6424.97
786.92755	6429.12
786.98694	6454.11
787.04633	6449.66
787.10571	6467.05
787.1651	6490.86
787.22449	6491.19
787.28387	6511.26
787.34326	6510.33
787.40271	6485.26
787.4621	6491.33
787.52148	6513.47
787.58087	6512.14
787.64026	6505.36
787.69965	6478.56
787.75903	6443.66
787.81842	6441.25
787.87781	6448.16
787.93719	6441.34
787.99658	6426
788.05597	6429.74
788.11536	6459.65
788.17474	6481.46
788.23413	6454.88
788.29352	6424.17
788.35291	6449.89
788.41229	6505.81
788.47168	6514.58
788.53107	6486.94
788.59052	6495.32
788.6499	6516.34
788.70929	6507.66
788.76868	6498.42
788.82806	6489.85
788.88745	6485.55
788.94684	6501.68
789.00623	6487.4
789.06561	6458.71
789.125	6485.4
789.18439	6497.24
789.24377	6475.53
789.30316	6474.19
789.36255	6470.2
789.42194	6478.03
789.48132	6498.34
789.54071	6498.24
789.6001	6506.72
789.65948	6530.16
789.71887	6517.71
789.77832	6473.19
789.83771	6451.67
789.89709	6458.43
789.95648	6479.42
790.01587	6509.59
790.07526	6546.22
790.13464	6553.83
790.19403	6547.08
790.25342	6557.81
790.31281	6532.9
790.37219	6493.67
790.43158	6508.9
790.49097	6533.39
790.55035	6532.93
790.60974	6527.37
790.66913	6504
790.72852	6427.3
790.7879	6426.39
790.84729	6524.21
790.90668	6541.32
790.96613	6471.16
791.02551	6446.02
791.0849	6451.03
791.14429	6437.36
791.20367	6452.71
791.26306	6499.73
791.32245	6523.53
791.38184	6525.03
791.44122	6514.36
791.50061	6478.07
791.56	6438.52
791.61938	6414.56
791.67877	6394.34
791.73816	6389.86
791.79755	6407.43
791.85693	6429.05
791.91632	6424.19
791.97571	6404.13
792.0351	6394.95
792.09448	6396.36
792.15393	6403.13
792.21332	6403.63
792.27271	6403.86
792.33209	6405.29
792.39148	6387.5
792.45087	6360.72
792.51025	6355.75
792.56964	6356.71
792.62903	6341.56
792.68842	6313.27
792.7478	6303.94
792.80719	6290.25
792.86658	6289.72
792.92596	6312.77
792.98535	6337.17
793.04474	6321.47
793.10413	6325.53
793.16351	6330.07
793.2229	6345.59
793.28229	6342.91
793.34174	6320.74
793.40112	6322.04
793.46051	6337.73
793.5199	6357.77
793.57928	6379.53
793.63867	6375.47
793.69806	6354.02
793.75745	6344.07
793.81683	6353.34
793.87622	6365.03
793.93561	6362.76
793.995	6354.73
794.05438	6345.42
794.11377	6335.84
794.17316	6347.87
794.23254	6375.93
794.29193	6389.04
794.35132	6377.75
794.41071	6369.86
794.47009	6370.95
794.52954	6404.41
794.58893	6483.64
794.64832	6547.49
794.7077	6573.09
794.76709	6504.23
794.82648	6373.45
794.88586	6322.8
794.94525	6355.36
795.00464	6398.86
795.06403	6401.26
795.12341	6378.67
795.1828	6367.48
795.24219	6361.68
795.30157	6322.69
795.36096	6274.94
795.42035	6251.6
795.47974	6249.04
795.53912	6259.3
795.59851	6257.08
795.6579	6251.59
795.71735	6266.43
795.77673	6290.69
795.83612	6300.26
795.89551	6287.82
795.9549	6284.12
796.01428	6299.38
796.07367	6289.55
796.13306	6270.34
796.19244	6273.75
796.25183	6274.84
796.31122	6268.18
796.37061	6266.35
796.42999	6288.01
796.48938	6327.44
796.54877	6331
796.60815	6309.57
796.66754	6313.6
796.72693	6320.35
796.78632	6311.07
796.8457	6310.79
796.90515	6302.65
796.96454	6270.47
797.02393	6269.93
797.08331	6310.38
797.1427	6321.5
797.20209	6304.22
797.26147	6316.6
797.32086	6337.68
797.38025	6346.96
797.43964	6343.67
797.49902	6322.53
797.55841	6321.97
797.6178	6323.35
797.67719	6315.18
797.73657	6322.45
797.79596	6352.19
797.85535	6340.75
797.91473	6303.85
797.97412	6308.65
798.03351	6338.86
798.09296	6372.29
798.15234	6391.28
798.21173	6372.52
798.27112	6348.74
798.33051	6354.21
798.38989	6369.09
798.44928	6375.35
798.50867	6373.57
798.56805	6363.24
798.62744	6358.24
798.68683	6348.76
798.74622	6342.69
798.8056	6347.81
798.86499	6356.16
798.92438	6355.46
798.98376	6338.17
799.04315	6344.24
799.10254	6366.6
799.16193	6365.69
799.22131	6368.94
799.28076	6381.76
799.34015	6424.06
799.39954	6425.6
799.45892	6364.73
799.51831	6373.93
799.5777	6402.76
799.63708	6398.04
799.69647	6403.89
799.75586	6433.7
799.81525	6433.6
799.87463	6438.65
799.93402	6392.27
799.99341	6364.3
800.0528	6374.59
800.11218	6374.28
800.17157	6360.14
800.23096	6348.74
800.29034	6330.64
800.34973	6328.27
800.40912	6340.58
800.46857	6347.37
800.52795	6366.56
800.58734	6393.97
800.64673	6409.69
800.70612	6404.96
800.7655	6375.52
800.82489	6339.61
800.88428	6331.6
800.94366	6335.2
801.00305	6334.37
801.06244	6342.54
801.12183	6350.1
801.18121	6347.32
801.2406	6347.69
801.29999	6348.58
801.35938	6339.75
801.41876	6325.16
801.47815	6303.1
801.53754	6315.38
801.59692	6329.31
801.65637	6332.93
801.71576	6345.94
801.77515	6345.51
801.83453	6412.7
801.89392	6475.21
801.95331	6454.42
802.0127	6373.99
802.07208	6335.54
802.13147	6321.18
802.19086	6300.59
802.25024	6315.43
802.30963	6321.88
802.36902	6302.99
802.42841	6315.96
802.48779	6317.7
802.54718	6291.87
802.60657	6316.1
802.66595	6327.26
802.72534	6331.83
802.78473	6334.98
802.84418	6325.86
802.90356	6320.8
802.96295	6313.05
803.02234	6297.88
803.08173	6283.36
803.14111	6264.72
803.2005	6260.33
803.25989	6277.69
803.31927	6289.6
803.37866	6284.95
803.43805	6272.44
803.49744	6271.44
803.55682	6287.31
803.61621	6309.57
803.6756	6301.76
803.73499	6275.85
803.79437	6273.6
803.85376	6287.35
803.91315	6302.5
803.97253	6309.24
804.03198	6303.46
804.09137	6282.88
804.15076	6272.52
804.21014	6272.29
804.26953	6255.93
804.32892	6259.29
804.38831	6286.78
804.44769	6292.14
804.50708	6272.59
804.56647	6260.77
804.62585	6274.01
804.68524	6306.37
804.74463	6329.7
804.80402	6319.11
804.8634	6319.59
804.92279	6306.63
804.98218	6293.72
805.04156	6261.37
805.10095	6228.11
805.16034	6229.39
805.21979	6281.79
805.27917	6336.17
805.33856	6307.04
805.39795	6256.46
805.45734	6279.41
805.51672	6290.38
805.57611	6285.28
805.6355	6279.08
805.69489	6260.15
805.75427	6255.23
805.81366	6263.48
805.87305	6273.39
805.93243	6264.89
805.99182	6262.88
806.05121	6265.81
806.1106	6259.23
806.16998	6258.31
806.22937	6283.6
806.28876	6265.57
806.34814	6238.04
806.40759	6235.72
806.46698	6238.38
806.52637	6267.79
806.58575	6282.69
806.64514	6289.91
806.70453	6310.08
806.76392	6293.7
806.8233	6260.62
806.88269	6253.14
806.94208	6254.65
807.00146	6265.07
807.06085	6280.93
807.12024	6299.98
807.17963	6312.54
807.23901	6314.42
807.2984	6301.12
807.35779	6293.48
807.41718	6294.99
807.47656	6304.83
807.53595	6321.49
807.5954	6310.22
807.65479	6297.23
807.71417	6305.95
807.77356	6312.36
807.83295	6324.42
807.89233	6342.88
807.95172	6353.45
808.01111	6333.88
808.0705	6308.53
808.12988	6342.68
808.18927	6360.36
808.24866	6352.64
808.30804	6336.97
808.36743	6316.2
808.42682	6369.17
808.48621	6373.69
808.54559	6414.95
808.60498	6431.11
808.66437	6520.63
808.72375	6546.82
808.7832	6449.11
808.84259	6393.09
808.90198	6459.39
808.96136	6489.31
809.02075	6494.12
809.08014	6496.53
809.13953	6503.37
809.19891	6528.57
809.2583	6631.63
809.31769	6625.88
809.37708	6454.28
809.43646	6427.09
809.49585	6457.38
809.55524	6484.14
809.61462	6476.98
809.67401	6441.21
809.7334	6423.91
809.79279	6425.54
809.85217	6417.63
809.91156	6413.33
809.97101	6416.53
810.0304	6419.68
810.08978	6424.66
810.14917	6425.43
810.20856	6408.66
810.26794	6402.87
810.32733	6469.74
810.38672	6535.24
810.44611	6526.99
810.50549	6502.03
810.56488	6454.82
810.62427	6442.89
810.68365	6450.57
810.74304	6437.06
810.80243	6380.85
810.86182	6357.91
810.9212	6391.37
810.98059	6482.29
811.03998	6580.77
811.09937	6542.87
811.15881	6620.43
811.2182	6605.51
811.27759	6636.58
811.33698	6576.91
811.39636	6464.64
811.45575	6420.75
811.51514	6461.92
811.57452	6491.56
811.63391	6452.17
811.6933	6422.79
811.75269	6376.08
811.81207	6377.23
811.87146	6446.57
811.93085	6506.36
811.99023	6535.5
812.04962	6528.49
812.10901	6469.68
812.1684	6438.5
812.22778	6442.8
812.28717	6422.56
812.34662	6444.58
812.40601	6504.77
812.46539	6502.96
812.52478	6466.45
812.58417	6499.28
812.64355	6548.2
812.70294	6514.34
812.76233	6441.3
812.82172	6432.22
812.8811	6443.29
812.94049	6447.69
812.99988	6470.29
813.05927	6473.02
813.11865	6498.25
813.17804	6491.3
813.23743	6443.58
813.29681	6471.33
813.3562	6495
813.41559	6502.38
813.47498	6525.97
813.53442	6478.9
813.59381	6409.88
813.6532	6336.81
813.71259	6301.43
813.77197	6343.4
813.83136	6435
813.89075	6519.61
813.95013	6509.98
814.00952	6462.6
814.06891	6432.64
814.1283	6414.19
814.18768	6389.91
814.24707	6394.97
814.30646	6426.41
814.36584	6426.27
814.42523	6378.51
814.48462	6329.24
814.54401	6337.03
814.60339	6358.24
814.66278	6362.59
814.72223	6437.57
814.78162	6519.91
814.841	6475.56
814.90039	6413.63
814.95978	6406.49
815.01917	6432.31
815.07855	6428.06
815.13794	6363.01
815.19733	6323.21
815.25671	6322.98
815.3161	6334.37
815.37549	6401.05
815.43488	6371.23
815.49426	6378.79
815.55365	6413.96
815.61304	6429.52
815.67242	6483.76
815.73181	6441.11
815.7912	6400.81
815.85059	6334.55
815.91003	6326.84
815.96942	6325.05
816.02881	6350.11
816.0882	6345.95
816.14758	6360.97
816.20697	6388.19
816.26636	6369.58
816.32574	6372.85
816.38513	6390.33
816.44452	6363.71
816.50391	6336.95
816.56329	6329.64
816.62268	6289.35
816.68207	6262
816.74146	6319.46
816.80084	6398.96
816.86023	6407.94
816.91962	6366.91
816.979	6329.49
817.03839	6312.48
817.09784	6334.34
817.15723	6363.23
817.21661	6349.79
817.276	6326.82
817.33539	6374.49
817.39478	6412.71
817.45416	6361.71
817.51355	6329.68
817.57294	6300.47
817.63232	6254.9
817.69171	6362.55
817.7511	6424.15
817.81049	6386.38
817.86987	6393.47
817.92926	6407.61
817.98865	6348.48
818.04803	6341.3
818.10742	6308.72
818.16681	6270.7
818.2262	6293.8
818.28564	6385.96
818.34503	6410.76
818.40442	6431.69
818.46381	6389.1
818.52319	6347.41
818.58258	6376.18
818.64197	6383.22
818.70135	6375.46
818.76074	6360.64
818.82013	6434.04
818.87952	6475.08
818.9389	6416.8
818.99829	6356.1
819.05768	6369.43
819.11707	6397.84
819.17645	6402.12
819.23584	6420.34
819.29523	6503.73
819.35461	6555.24
819.414	6514.96
819.47345	6461.14
819.53284	6462.17
819.59222	6504.14
819.65161	6501.36
819.711	6471.6
819.77039	6482.55
819.82977	6501.36
819.88916	6479.37
819.94855	6449.43
820.00793	6471.3
820.06732	6555.78
820.12671	6566.92
820.1861	6503.73
820.24548	6522.89
820.30487	6447.52
820.36426	6439.04
820.42365	6413.67
820.48303	6469.78
820.54242	6580.82
820.60181	6549.18
820.66125	6481.37
820.72064	6400.93
820.78003	6405.28
820.83942	6461.4
820.8988	6559.89
820.95819	6541.46
821.01758	6556.54
821.07697	6554.08
821.13635	6422.05
821.19574	6396.66
821.25513	6474.34
821.31451	6551.02
821.3739	6540.95
821.43329	6562.29
821.49268	6472.62
821.55206	6393.77
821.61145	6389.14
821.67084	6442.53
821.73022	6540.03
821.78961	6626
821.84906	6596.61
821.90845	6525.24
821.96783	6538.19
822.02722	6701.29
822.08661	6669.65
822.146	6604.26
822.20538	6572.88
822.26477	6588.1
822.32416	6568.45
822.38354	6547.95
822.44293	6544.37
822.50232	6600.12
822.56171	6572.79
822.62109	6557.57
822.68048	6642.74
822.73987	6577.8
822.79926	6553.42
822.85864	6613.57
822.91803	6634.75
822.97742	6639.48
823.03687	6615.22
823.09625	6568.34
823.15564	6612.75
823.21503	6579.04
823.27441	6550.7
823.3338	6584.16
823.39319	6607.75
823.45258	6547.45
823.51196	6460.08
823.57135	6509.57
823.63074	6579.61
823.69012	6612.49
823.74951	6618.82
823.8089	6577.91
823.86829	6581.88
823.92767	6553.38
823.98706	6556.73
824.04645	6548.15
824.10583	6577.87
824.16522	6586.2
824.22467	6468.57
824.28406	6468.1
824.34344	6513.22
824.40283	6491.62
824.46222	6545.96
824.52161	6637.97
824.58099	6507.09
824.64038	6410.3
824.69977	6400.8
824.75916	6332.21
824.81854	6407.74
824.87793	6373.49
824.93732	6338.61
824.9967	6254.55
825.05609	6251.6
825.11548	6292.63
825.17487	6304.04
825.23425	6335.77
825.29364	6316.79
825.35303	6298.83
825.41248	6302.18
825.47186	6308.17
825.53125	6307.92
825.59064	6271.21
825.65002	6237.08
825.70941	6246.65
825.7688	6276.76
825.82819	6286.05
825.88757	6280.34
825.94696	6271.52
826.00635	6275.85
826.06573	6296.4
826.12512	6299.96
826.18451	6328.26
826.2439	6340.85
826.30328	6272.57
826.36267	6214.78
826.42206	6189.84
826.48145	6214.98
826.54089	6239.36
826.60028	6234.14
826.65967	6253.19
826.71906	6254.64
826.77844	6196.82
826.83783	6197.69
826.89722	6259.63
826.9566	6268.63
827.01599	6304.03
827.07538	6265.51
827.13477	6255.72
827.19415	6278.73
827.25354	6291.8
827.31293	6270.41
827.37231	6255.66
827.4317	6266.9
827.49109	6227.39
827.55048	6245.88
827.60986	6255.73
827.66925	6192.52
827.7287	6195.02
827.78809	6243.06
827.84747	6227.71
827.90686	6237.8
827.96625	6245.26
828.02563	6241.66
828.08502	6232.04
828.14441	6256.68
828.2038	6229.05
828.26318	6219.52
828.32257	6226.62
828.38196	6196.19
828.44135	6191.87
828.50073	6217.33
828.56012	6220.78
828.61951	6220.01
828.67889	6221.36
828.73828	6215.28
828.79767	6215.16
828.85706	6244.87
828.9165	6281.03
828.97589	6266.66
829.03528	6262.19
829.09467	6226.46
829.15405	6217.27
829.21344	6254.9
829.27283	6272.99
829.33221	6301.18
829.3916	6289.94
829.45099	6295.94
829.51038	6282.61
829.56976	6288.81
829.62915	6330.19
829.68854	6297.79
829.74792	6259.86
829.80731	6257.29
829.8667	6255.84
829.92609	6280.69
829.98547	6260.12
830.04486	6309.43
830.10431	6262.61
830.1637	6250.55
830.22308	6246.8
830.28247	6349.42
830.34186	6290.78
830.40125	6327.44
830.46063	6345.25
830.52002	6375.08
830.57941	6309.12
830.63879	6391.98
830.69818	6357.3
830.75757	6339.17
830.81696	6343.6
830.87634	6495.03
830.93573	6367.13
830.99512	6348.9
831.0545	6337.23
831.11389	6340.89
831.17328	6359.75
831.23267	6344.19
831.29211	6340.88
831.3515	6303.59
831.41089	6325.11
831.47028	6353.24
831.52966	6341.04
831.58905	6313.9
831.64844	6341.81
831.70782	6413.97
831.76721	6388.42
831.8266	6352.45
831.88599	6354.81
831.94537	6347.43
832.00476	6373.42
832.06415	6404.23
832.12354	6399.58
832.18292	6414.58
832.24231	6414.76
832.3017	6383.9
832.36108	6361.63
832.42047	6351.82
832.47992	6356.04
832.53931	6362.88
832.59869	6396.43
832.65808	6352.73
832.71747	6320.64
832.77686	6338.14
832.83624	6360.62
832.89563	6341.28
832.95502	6298.8
833.0144	6318.44
833.07379	6319.59
833.13318	6352.89
833.19257	6375.33
833.25195	6406.11
833.31134	6411.57
833.37073	6366.53
833.43011	6421.63
833.4895	6557.01
833.54889	6280.29
833.60828	6400.32
833.66772	6365.84
833.72711	6315.17
833.7865	6341.24
833.84589	6340.31
833.90527	6346.06
833.96466	6358.14
834.02405	6346.55
834.08344	6322.91
834.14282	6417.34
834.20221	6465.63
834.2616	6396.46
834.32098	6327.49
834.38037	6324.4
834.43976	6290.06
834.49915	6304.34
834.55853	6325.28
834.61792	6321.32
834.67731	6282.08
834.73669	6239.56
834.79608	6296.41
834.85553	6367.84
834.91492	6386.41
834.9743	6371.23
835.03369	6348.62
835.09308	6319.3
835.15247	6292.05
835.21185	6342.83
835.27124	6362.88
835.33063	6341.15
835.39001	6370.44
835.4494	6384.15
835.50879	6326.46
835.56818	6267.42
835.62756	6327.35
835.68695	6291.99
835.74634	6237.63
835.80573	6245.88
835.86511	6307.27
835.9245	6325.63
835.98389	6255.99
836.04333	6242.89
836.10272	6340.85
836.16211	6310.32
836.2215	6264.81
836.28088	6324.07
836.34027	6287.72
836.39966	6251
836.45905	6213.95
836.51843	6228.69
836.57782	6291.23
836.63721	6377.48
836.69659	6263.16
836.75598	6291.59
836.81537	6241.87
836.87476	6273.72
836.93414	6303
836.99353	6307.34
837.05292	6317.17
837.1123	6242.97
837.17169	6244.1
837.23114	6250.88
837.29053	6254.54
837.34991	6247.68
837.4093	6257.4
837.46869	6246.03
837.52808	6234.71
837.58746	6290.32
837.64685	6276.38
837.70624	6315.64
837.76563	6311.48
837.82501	6337.11
837.8844	6333.28
837.94379	6280.06
838.00317	6234.53
838.06256	6226.07
838.12195	6244.89
838.18134	6232.69
838.24072	6239.49
838.30011	6232.44
838.3595	6233.74
838.41895	6233.26
838.47833	6250.96
838.53772	6246.38
838.59711	6217.46
838.65649	6234.5
838.71588	6234.65
838.77527	6237.33
838.83466	6221.41
838.89404	6225.45
838.95343	6189.17
839.01282	6176.47
839.0722	6223.58
839.13159	6200.25
839.19098	6274.99
839.25037	6232.8
839.30975	6153.31
839.36914	6111.57
839.42853	6207.69
839.48792	6183.43
839.5473	6202.38
839.60675	6227.75
839.66614	6196.05
839.72552	6241.92
839.78491	6323.33
839.8443	6249.82
839.90369	6265.29
839.96307	6231.81
840.02246	6233.24
840.08185	6199.23
840.14124	6230.64
840.20062	6195.92
840.26001	6210.85
840.3194	6278.58
840.37878	6260.27
840.43817	6260.61
840.49756	6255.41
840.55695	6235.69
840.61633	6285.19
840.67572	6287.21
840.73511	6264.7
840.79456	6236.7
840.85394	6298.53
840.91333	6283.94
840.97272	6256.23
841.0321	6308.34
841.09149	6345.14
841.15088	6277.35
841.21027	6316.31
841.26965	6267.63
841.32904	6307.75
841.38843	6285.49
841.44781	6395.91
841.5072	6290.75
841.56659	6432.09
841.62598	6326.69
841.68536	6351.69
841.74475	6294.43
841.80414	6458.19
841.86353	6450.95
841.92291	6372.66
841.98236	6249.17
842.04175	6358.6
842.10114	6312.21
842.16052	6340.97
842.21991	6331.01
842.2793	6312.46
842.33868	6312.14
842.39807	6203.98
842.45746	6301.71
842.51685	6402.91
842.57623	6375.7
842.63562	6319.91
842.69501	6295.23
842.75439	6336.57
842.81378	6333.41
842.87317	6388.97
842.93256	6324.32
842.99194	6352.5
843.05133	6291.65
843.11072	6256.82
843.17017	6312.78
843.22955	6333.5
843.28894	6329.68
843.34833	6399.07
843.40771	6253.65
843.4671	6339.6
843.52649	6275.46
843.58588	6308.77
843.64526	6346.36
843.70465	6304.84
843.76404	6340.21
843.82343	6297.72
843.88281	6343.18
843.9422	6290.39
844.00159	6358.06
844.06097	6372.6
844.12036	6357.38
844.17975	6393.71
844.23914	6367.41
844.29852	6424.83
844.35797	6341.47
844.41736	6431.69
844.47675	6412.54
844.53613	6482.87
844.59552	6932.55
844.65491	7969.37
844.71429	7139.55
844.77368	6508.52
844.83307	6435.92
844.89246	6418.28
844.95184	6322.18
845.01123	6342.3
845.07062	6320.19
845.13	6332.53
845.18939	6337.91
845.24878	6271.59
845.30817	6377.94
845.36755	6327.61
845.42694	6324.02
845.48633	6334.85
845.54578	6298.17
845.60516	6341.17
845.66455	6323.67
845.72394	6267.37
845.78333	6305.8
845.84271	6221.2
845.9021	6265.61
845.96149	6184.77
846.02087	6260.59
846.08026	6293.21
846.13965	6329.04
846.19904	6294.33
846.25842	6284.15
846.31781	6310.02
846.3772	6296.79
846.43658	6195.4
846.49597	6234.16
846.55536	6225.2
846.61475	6210.26
846.67413	6246.13
846.73358	6208.08
846.79297	6210.94
846.85236	6158.72
846.91174	6209.82
846.97113	6201.66
847.03052	6261.72
847.0899	6248.1
847.14929	6201.67
847.20868	6271.24
847.26807	6281.6
847.32745	6250.29
847.38684	6213.6
847.44623	6271.19
847.50562	6203.03
847.565	6281.23
847.62439	6197.37
847.68378	6200.36
847.74316	6192.57
847.80255	6238.63
847.86194	6208.66
847.92139	6181.87
847.98077	6183.89
848.04016	6185.29
848.09955	6161.65
848.15894	6207.7
848.21832	6240.02
848.27771	6218.13
848.3371	6160.5
848.39648	6202.56
848.45587	6179.01
848.51526	6234.72
848.57465	6271.51
848.63403	6190.33
848.69342	6204.96
848.75281	6202.45
848.81219	6208.55
848.87158	6189.12
848.93097	6185.75
848.99036	6145.85
849.04974	6145.41
849.10919	6210.8
849.16858	6216.33
849.22797	6156.9
849.28735	6157.55
849.34674	6184.87
849.40613	6194.93
849.46552	6097.66
849.5249	6134.72
849.58429	6161.78
849.64368	6180.32
849.70306	6183.94
849.76245	6196.96
849.82184	6171.99
849.88123	6152.07
849.94061	6095.01
850	6220.14
