Date and Time:                Fri Apr 13 12:22:48.444 2018
Software Version:             4.30.30034.0
Temperature (C):              -30
Model:                        DH334T-18U-03
Data Type:                    Counts
Acquisition Mode:             Accumulate
Trigger Mode:                 Internal
Exposure Time (secs):         2
Accumulate Cycle Time (secs): 2
Frequency (Hz):               0.5
Number of Accumulations:      10
Readout Mode:                 Full Vertical Binning
Horizontal binning:           1
Extended Dynamic Range:       off
Horizontally flipped:         true
Vertical Shift Speed (usecs): 6.5
Pixel Readout Rate (MHz):     0.05
Clock Amplitude:              Normal
Serial Number:                5999
Pre-Amplifier Gain:           1.000000
Intelligate:                  off
Insertion delay:              normal
Gain level:                   500
Integrate on chip:            off
PIV Mode:                     off
Gate Mode:                    Fire only
Gate Width (nsecs):           0
Gate Delay (nsecs):           0
Spurious Noise Filter Mode:   No Filter
Photon counted:               false
Data Averaging Filter Mode:   No Filter
SR750:
Serial Number:                SR-1311
Wavelength (nm):              624.89
Grating Groove Density (l/mm):1199.66
Grating Blaze:                500
Output Flipper Port:          Direct
Accessory Output Port 1:      Off
Accessory Output Port 2:      Off
Accessory Output Port 3:      Off
Accessory Input Port:         On



400	0
400.21982	7715.75
400.43967	7721
400.65948	7691.92
400.87933	7687.23
401.09915	7688.96
401.319	7694.07
401.53882	7713.44
401.75867	7746.75
401.97849	7786.7
402.19833	7825.15
402.41815	7852.94
402.638	7864.49
402.85782	7864.31
403.07767	7863.97
403.29749	7872.66
403.51733	7893.2
403.73715	7929.31
403.957	7995.09
404.17682	8099.22
404.39667	8207.32
404.61649	8255.89
404.83633	8231.13
405.05615	8191.88
405.276	8195.43
405.49582	8243.35
405.71567	8313.38
405.93549	8401.17
406.15533	8501.65
406.37518	8592.72
406.595	8671.34
406.81485	8761.35
407.03467	8869.54
407.25452	8973.25
407.47433	9047.51
407.69418	9081.47
407.914	9083.75
408.13385	9079.73
408.35367	9097.7
408.57352	9146.06
408.79333	9206.81
409.01318	9260.95
409.233	9308.83
409.45285	9360.43
409.67267	9419.25
409.89252	9484.18
410.11234	9553.22
410.33218	9621.69
410.552	9687.2
410.77185	9754.12
410.99167	9827.95
411.21152	9909.41
411.43134	9994.3
411.65118	10068.5
411.871	10084.8
412.09085	9952.18
412.3107	9600.38
412.53052	9089.73
412.75037	8604.94
412.97018	8293.22
413.19003	8147.95
413.40985	8079.72
413.6297	8033.06
413.84952	7998.55
414.06937	7975.71
414.28918	7964.59
414.50903	7965.45
414.72885	7977.38
414.9487	8003.07
415.16852	8045.51
415.38837	8094.7
415.60818	8127.67
415.82803	8136.47
416.04785	8142.48
416.2677	8162.8
416.48752	8187.44
416.70737	8211.04
416.92719	8247.87
417.14703	8303.79
417.36685	8370.32
417.5867	8438.61
417.80652	8496.73
418.02637	8537.95
418.24619	8574.5
418.46603	8624.03
418.68588	8689.16
418.9057	8750.49
419.12555	8777.06
419.34537	8757.85
419.56522	8717.04
419.78503	8684.82
420.00488	8669.22
420.2247	8669.01
420.44455	8690.31
420.66437	8732.14
420.88422	8770.92
421.10403	8768.6
421.32388	8701.21
421.5437	8590.56
421.76355	8492.46
421.98337	8442.4
422.20322	8433.12
422.42303	8439.36
422.64288	8439.21
422.8627	8423.19
423.08255	8396.9
423.30237	8365.07
423.52222	8320.48
423.74203	8262.17
423.96188	8208.01
424.1817	8175.09
424.40155	8165.83
424.62137	8179.27
424.84122	8209.98
425.06107	8244.11
425.28088	8270.31
425.50073	8281.89
425.72055	8281.17
425.9404	8289.32
426.16022	8341.49
426.38007	8457.98
426.59988	8589.79
426.81973	8638.08
427.03955	8575.21
427.2594	8476.36
427.47922	8409.29
427.69907	8376.22
427.91888	8357.01
428.13873	8343.42
428.35855	8340.57
428.5784	8359.46
428.79822	8403.48
429.01807	8463.1
429.23788	8527.6
429.45773	8594.25
429.67755	8664.67
429.8974	8740.72
430.11722	8822.76
430.33707	8910.26
430.55688	9000.08
430.77673	9075.48
430.99655	9107.76
431.2164	9084.38
431.43625	9028.51
431.65607	8982.85
431.87592	8973.9
432.09573	8997.9
432.31558	9037.84
432.5354	9084.04
432.75525	9132.05
432.97507	9171.74
433.19492	9203.02
433.41473	9252.38
433.63458	9353.62
433.8544	9502.88
434.07425	9619.75
434.29407	9624.79
434.51392	9572.3
434.73373	9562.17
434.95358	9606.61
435.1734	9699.21
435.39325	9889.28
435.61307	10159.1
435.83292	10314.4
436.05273	10202.9
436.27258	9953.5
436.4924	9785.52
436.71225	9744.72
436.93207	9757.8
437.15192	9772.46
437.37177	9771.92
437.59158	9744.42
437.81143	9690.1
438.03125	9623.66
438.2511	9555.58
438.47092	9480.19
438.69077	9383.92
438.91058	9253.91
439.13043	9079.13
439.35025	8881.41
439.5701	8718.83
439.78992	8622.47
440.00977	8578.69
440.22958	8567.96
440.44943	8580.16
440.66925	8616.49
440.8891	8691.87
441.10892	8813.5
441.32877	8946.56
441.54858	9028.18
441.76843	9031.84
441.98825	9000.18
442.2081	8993.59
442.42792	9019.62
442.64777	9049.79
442.86758	9076.63
443.08743	9107.52
443.30725	9144.97
443.5271	9180.13
443.74695	9194.53
443.96677	9194.84
444.18661	9209.1
444.40643	9249.86
444.62628	9306.71
444.8461	9345.73
445.06595	9343.29
445.28577	9328.41
445.50562	9340.15
445.72543	9370.3
445.94528	9386.75
446.1651	9374.71
446.38495	9342.35
446.60477	9315.8
446.82462	9315.76
447.04443	9333.78
447.26428	9356.69
447.4841	9390.23
447.70395	9435.66
447.92377	9480.85
448.14362	9524.24
448.36343	9572.94
448.58328	9616.54
448.8031	9635.27
449.02295	9633.12
449.24277	9630.56
449.46262	9634.52
449.68243	9640.33
449.90228	9648.17
450.12213	9661.29
450.34195	9670.1
450.5618	9630.28
450.78162	9465.21
451.00146	9144.78
451.22128	8770.7
451.44113	8492.35
451.66095	8351.59
451.8808	8289.91
452.10062	8251.62
452.32047	8226.01
452.54028	8217.75
452.76013	8223.31
452.97995	8244.26
453.1998	8291.48
453.41962	8358.48
453.63947	8416.36
453.85928	8457.14
454.07913	8505.98
454.29895	8567.48
454.5188	8617.33
454.73862	8651.14
454.95847	8673.64
455.17828	8670.92
455.39813	8640.9
455.61795	8606.31
455.8378	8588.73
456.05762	8596.26
456.27747	8620.49
456.49731	8642.98
456.71713	8658.25
456.93698	8675.29
457.1568	8692.05
457.37665	8702.46
457.59647	8730.19
457.81631	8774.73
458.03613	8768.03
458.25598	8683.18
458.4758	8599.75
458.69565	8584.77
458.91547	8600.18
459.13531	8593.01
459.35513	8584.28
459.57498	8588.47
459.7948	8559.03
460.01465	8497.23
460.23447	8472.08
460.45432	8497.96
460.67413	8513.94
460.89398	8489.66
461.1138	8459.68
461.33365	8455.93
461.55347	8470.94
461.77332	8483.36
461.99313	8481.21
462.21298	8470.95
462.43283	8485.54
462.65265	8560.12
462.8725	8671.94
463.09232	8735.83
463.31216	8699.56
463.53198	8606.3
463.75183	8529.12
463.97165	8497.34
464.1915	8510.24
464.41132	8559.22
464.63116	8619.83
464.85098	8670.01
465.07083	8710.29
465.29065	8740.43
465.5105	8754.59
465.73032	8770.07
465.95016	8800.65
466.16998	8812.61
466.38983	8780.24
466.60965	8742.33
466.8295	8736.07
467.04932	8745.95
467.26917	8759.11
467.48898	8779.29
467.70883	8791.99
467.92865	8806.4
468.1485	8842.99
468.36832	8858.19
468.58817	8836.34
468.80801	8817.87
469.02783	8788.44
469.24768	8741.21
469.4675	8722.51
469.68735	8728.89
469.90717	8727.8
470.12701	8724.33
470.34683	8721.44
470.56668	8712.98
470.7865	8709.35
471.00635	8713.28
471.22617	8718.51
471.44601	8723.52
471.66583	8726.23
471.88568	8730.91
472.1055	8735.52
472.32535	8726.56
472.54517	8709.33
472.76501	8695.42
472.98483	8680.36
473.20468	8658.49
473.4245	8634.04
473.64435	8616.5
473.86417	8598.79
474.08401	8569.57
474.30383	8538.21
474.52368	8514.44
474.7435	8506.92
474.96335	8525.96
475.1832	8564.93
475.40302	8604.49
475.62286	8629.17
475.84268	8642.16
476.06253	8667.67
476.28235	8725.04
476.5022	8804.84
476.72202	8881.66
476.94186	8942.52
477.16168	9000.82
477.38153	9075.95
477.60135	9158.82
477.8212	9218.6
478.04102	9250.73
478.26086	9283.87
478.48068	9334.16
478.70053	9387.98
478.92035	9419.48
479.1402	9422.25
479.36002	9416.95
479.57986	9435.37
479.79968	9489.59
480.01953	9551.45
480.23935	9601
480.4592	9654.09
480.67902	9717.06
480.89886	9768.3
481.11871	9788.98
481.33853	9790.13
481.55838	9802.64
481.7782	9845.67
481.99805	9912.76
482.21786	9977.6
482.43771	10007.6
482.65753	9988.25
482.87738	9926.75
483.0972	9797.93
483.31705	9510.24
483.53687	9020.8
483.75671	8474.52
483.97653	8087.56
484.19638	7918.04
484.4162	7881.36
484.63605	7893.89
484.85587	7916.81
485.07571	7963.23
485.29553	8114.15
485.51538	8485.42
485.7352	9100.89
485.95505	9716.01
486.17487	9898.25
486.39471	9492.55
486.61453	8831.76
486.83438	8317.95
487.0542	8056.42
487.27405	7953
487.4939	7908.85
487.71371	7877.77
487.93356	7853.69
488.15338	7843.94
488.37323	7848.14
488.59305	7860.09
488.8129	7877.09
489.03271	7899.67
489.25256	7926.09
489.47238	7950.98
489.69223	7971.78
489.91205	7985.03
490.1319	7982.3
490.35172	7967.79
490.57156	7967.16
490.79138	7996.33
491.01123	8029.09
491.23105	8031.63
491.4509	8017.9
491.67072	8024.37
491.89056	8047.27
492.11038	8056.68
492.33023	8061.06
492.55005	8097.08
492.7699	8161.15
492.98972	8202.91
493.20956	8186.82
493.42938	8124.31
493.64923	8058.83
493.86908	8020.5
494.0889	7990.45
494.30875	7943.66
494.52856	7897.7
494.74841	7879.46
494.96823	7874.06
495.18808	7860.4
495.4079	7861
495.62775	7897.67
495.84756	7934.66
496.06741	7918.98
496.28723	7857.6
496.50708	7806.14
496.7269	7790.15
496.94675	7787.26
497.16656	7779.84
497.38641	7771.54
497.60623	7756.9
497.82608	7721.97
498.0459	7677.23
498.26575	7652.12
498.48557	7648
498.70541	7636.79
498.92523	7617.96
499.14508	7628.7
499.3649	7680.09
499.58475	7734.43
499.80457	7764.15
500.02441	7782.9
500.24426	7804.18
500.46408	7824.97
500.68393	7863.21
500.90375	7941.04
501.1236	8017.27
501.34341	8023.98
501.56326	7982.18
501.78308	7964.99
502.00293	7955.35
502.22275	7908.4
502.4426	7886.5
502.66241	7938.3
502.88226	7998.97
503.10208	8013.48
503.32193	8014.2
503.54175	8028.29
503.7616	8038.23
503.98141	8043.43
504.20126	8056.94
504.42108	8066.57
504.64093	8069.15
504.86075	8088.74
505.0806	8115.79
505.30042	8117.33
505.52026	8107.46
505.74008	8107.94
505.95993	8101.72
506.17978	8092.64
506.3996	8107.42
506.61945	8128.27
506.83926	8135.22
507.05911	8149.21
507.27893	8163.96
507.49878	8165.82
507.7186	8191.27
507.93845	8229.8
508.15826	8209.57
508.37811	8147.47
508.59793	8113.82
508.81778	8104.57
509.0376	8092.01
509.25745	8074.7
509.47726	8060.02
509.69711	8060.9
509.91693	8066.98
510.13678	8058.39
510.3566	8056.84
510.57645	8077.53
510.79626	8097.03
511.01611	8121.47
511.23593	8178.31
511.45578	8251.26
511.6756	8304.26
511.89545	8342.1
512.1153	8395.97
512.33508	8468.39
512.55493	8536.33
512.77478	8590.41
512.99463	8637.31
513.21448	8674.45
513.43427	8690.32
513.65411	8696.27
513.87396	8714.68
514.09381	8754.83
514.3136	8810.93
514.53345	8846.54
514.7533	8845.28
514.97314	8840.65
515.19293	8848.57
515.41278	8868.2
515.63263	8914.38
515.85248	8985.41
516.07227	9050.09
516.29211	9076.56
516.51196	9052.38
516.73181	8995.3
516.9516	8940.55
517.17145	8910.56
517.3913	8905.88
517.61115	8914.32
517.83093	8919.54
518.05078	8913.76
518.27063	8906.58
518.49048	8910.59
518.71033	8921.29
518.93011	8924.81
519.14996	8904.99
519.36981	8815.84
519.58966	8588.74
519.80945	8223.26
520.0293	7834.29
520.24915	7549.73
520.46899	7398.78
520.68878	7333.76
520.90863	7303.93
521.12848	7288.47
521.34833	7288.43
521.56812	7301.25
521.78796	7310.9
522.00781	7305.36
522.22766	7293.79
522.44745	7294.15
522.6673	7311.36
522.88715	7332.15
523.10699	7336.36
523.32678	7322.77
523.54663	7317.31
523.76648	7340.55
523.98633	7382.43
524.20612	7421.35
524.42596	7445.99
524.64581	7455.63
524.86566	7460.74
525.08551	7476.57
525.3053	7505.92
525.52515	7536.12
525.745	7554.13
525.96484	7562.41
526.18463	7573.32
526.40448	7586.54
526.62433	7589.37
526.84418	7574.88
527.06396	7545.38
527.28381	7510.97
527.50366	7484.38
527.72351	7468.52
527.9433	7464.35
528.16315	7472.77
528.383	7474.62
528.60284	7456.91
528.82263	7434.61
529.04248	7420.51
529.26233	7409.47
529.48218	7396.88
529.70197	7389.9
529.92181	7393.21
530.14166	7397.04
530.36151	7390.74
530.5813	7377.78
530.80115	7372.17
531.021	7378.66
531.24084	7384.08
531.46069	7375.07
531.68048	7353.76
531.90033	7336.03
532.12018	7340.31
532.34003	7365.4
532.55981	7381.65
532.77966	7362.82
532.99951	7320.76
533.21936	7290.71
533.43915	7288.14
533.659	7297.8
533.87885	7300.54
534.09869	7296.26
534.31848	7298.9
534.53833	7314.88
534.75818	7333.16
534.97803	7341.15
535.19781	7350.63
535.41766	7387.95
535.63751	7449.92
535.85736	7497.35
536.07715	7498.88
536.297	7474.08
536.51685	7469.94
536.73669	7496.68
536.95648	7526.39
537.17633	7528.01
537.39618	7504.64
537.61603	7500.82
537.83588	7530.83
538.05566	7553.88
538.27551	7539.52
538.49536	7514.63
538.71521	7516.16
538.935	7530.77
539.15485	7525.75
539.37469	7498.57
539.59454	7471.13
539.81433	7456.48
540.03418	7445.35
540.25403	7427.33
540.47388	7410.37
540.69366	7404.61
540.91351	7400.07
541.13336	7381.7
541.35321	7358.48
541.573	7353.37
541.79285	7364.23
542.0127	7361.17
542.23254	7337.71
542.45233	7329.31
542.67218	7351.21
542.89203	7367.22
543.11188	7348.62
543.33167	7318.29
543.55151	7308.33
543.77136	7304.62
543.99121	7276.45
544.21106	7245.8
544.43085	7255.18
544.6507	7278.47
544.87054	7262.91
545.09039	7235.88
545.31018	7264.21
545.53003	7364.33
545.74988	7502.88
545.96973	7610.23
546.18951	7608.44
546.40936	7503.51
546.62921	7394.13
546.84906	7359.55
547.06885	7390.28
547.2887	7422.77
547.50854	7429.37
547.72839	7442.65
547.94818	7473.97
548.16803	7489.28
548.38788	7483.54
548.60773	7486.12
548.82751	7498.73
549.04736	7511.65
549.26721	7541.5
549.48706	7582.6
549.70685	7601.88
549.9267	7603.65
550.14655	7605.75
550.36639	7592.83
550.58624	7568.53
550.80603	7562.8
551.02588	7563.37
551.24573	7546.66
551.46558	7534.53
551.68536	7533.29
551.90521	7525.97
552.12506	7531.47
552.34491	7544.58
552.5647	7539.12
552.78455	7550.16
553.00439	7578.86
553.22424	7580.02
553.44403	7564.36
553.66388	7550.09
553.88373	7544.79
554.10358	7558.03
554.32336	7569.2
554.54321	7561.93
554.76306	7547.45
554.98291	7534.87
555.2027	7527.62
555.42255	7527.64
555.6424	7531.95
555.86224	7534.91
556.08203	7534.07
556.30188	7533.19
556.52173	7534.5
556.74158	7535.09
556.96143	7530.51
557.18121	7520.53
557.40106	7520.37
557.62091	7546.96
557.84076	7595.78
558.06055	7647.86
558.2804	7681.29
558.50024	7688.17
558.72009	7689.75
558.93988	7713.96
559.15973	7767.09
559.37958	7830.95
559.59943	7876.87
559.81921	7888.13
560.03906	7866.83
560.25891	7820.48
560.47876	7747.66
560.69855	7633.38
560.9184	7476.82
561.13824	7323.41
561.35809	7220.05
561.57788	7159.16
561.79773	7126.25
562.01758	7122.78
562.23743	7131.01
562.45728	7128.19
562.67706	7115.72
562.89691	7110.02
563.11676	7117.31
563.33661	7121.25
563.5564	7103.45
563.77625	7071.44
563.99609	7048.73
564.21594	7042.22
564.43573	7038.52
564.65558	7025.97
564.87543	7007.6
565.09528	6996.12
565.31506	7002.16
565.53491	7023.87
565.75476	7043.92
565.97461	7043.31
566.1944	7023.06
566.41425	7003.31
566.63409	7000.69
566.85394	7013.16
567.07373	7020.26
567.29358	7001.85
567.51343	6970.86
567.73328	6965.69
567.95306	6992.14
568.17291	7012.09
568.39276	7007.46
568.61261	7003.68
568.83246	7008.21
569.05225	7001.4
569.27209	6993.87
569.49194	7007.17
569.71179	7031.82
569.93158	7052.63
570.15143	7068.24
570.37128	7072.89
570.59113	7062.98
570.81091	7054.24
571.03076	7058.62
571.25061	7066.02
571.47046	7062.34
571.69025	7048.87
571.9101	7041.95
572.12994	7051.5
572.34979	7069.4
572.56958	7092.75
572.78943	7125.23
573.00928	7153.34
573.22913	7159.22
573.44891	7146.46
573.66876	7129.38
573.88861	7115.19
574.10846	7098.63
574.32825	7070.52
574.5481	7035.21
574.76794	7005.33
574.98779	6994.47
575.20764	7020.41
575.42743	7081.83
575.64728	7142.33
575.86713	7159.5
576.08698	7125.09
576.30676	7073.55
576.52661	7045.08
576.74646	7046.08
576.96631	7054.83
577.1861	7050.75
577.40594	7034.05
577.62579	7021.9
577.84564	7019.78
578.06543	7015.85
578.28528	7004.44
578.50513	6985.72
578.72498	6965.26
578.94476	6956.91
579.16461	6961.45
579.38446	6969.71
579.60431	6973.17
579.8241	6961.67
580.04395	6938.55
580.26379	6924.56
580.48364	6936.09
580.70343	6974.71
580.92328	7030.59
581.14313	7080.1
581.36298	7098.76
581.58282	7086.93
581.80261	7061.82
582.02246	7030.12
582.24231	6987.85
582.46216	6941.14
582.68195	6919.99
582.90179	6952.59
583.12164	7021.51
583.34149	7080.17
583.56128	7096.56
583.78113	7063.25
584.00098	7003.5
584.22083	6963.1
584.44061	6962.77
584.66046	6978.12
584.88031	6978.47
585.10016	6963.33
585.31995	6948.49
585.53979	6939.73
585.75964	6934.07
585.97949	6932.98
586.19928	6940.09
586.41913	6955.52
586.63898	6971.57
586.85883	6969.72
587.07861	6939.38
587.29846	6903.66
587.51831	6895.58
587.73816	6911.3
587.95801	6931.76
588.1778	6977.92
588.39764	7112.79
588.61749	7362.01
588.83734	7618.69
589.05713	7714.1
589.27698	7627.12
589.49683	7471.06
589.71667	7298.01
589.93646	7110
590.15631	6951.3
590.37616	6858.81
590.59601	6822.61
590.8158	6812.56
591.03564	6801.59
591.25549	6787.51
591.47534	6788.37
591.69513	6805.45
591.91498	6815.48
592.13483	6798.25
592.35468	6769.24
592.57446	6771.23
592.79431	6810.91
593.01416	6843.34
593.23401	6844.71
593.4538	6852.82
593.67365	6895.57
593.89349	6933.09
594.11334	6920.77
594.33319	6885.31
594.55298	6876.02
594.77283	6881.48
594.99268	6864.3
595.21252	6844.5
595.43231	6860.97
595.65216	6888.82
595.87201	6885.39
596.09186	6875.05
596.31165	6899.19
596.53149	6946.29
596.75134	6982.4
596.97119	6998.71
597.19098	7000.83
597.41083	6983.36
597.63068	6950.91
597.85052	6940.28
598.07031	6959.58
598.29016	6962.46
598.51001	6939.94
598.72986	6928.42
598.94965	6924.41
599.16949	6905.25
599.38934	6882.8
599.60919	6872.71
599.82898	6871.91
600.04883	6876.56
600.26868	6882.16
600.48853	6886.86
600.70837	6893.97
600.92816	6887.79
601.14801	6856.27
601.36786	6829.42
601.58771	6827.06
601.8075	6833.39
602.02734	6843.16
602.24719	6857.43
602.46704	6875.66
602.68683	6905.22
602.90668	6938.88
603.12653	6948.84
603.34637	6917.57
603.56616	6869.05
603.78601	6842.32
604.00586	6846.25
604.22571	6869.05
604.4455	6891.04
604.66534	6902.25
604.88519	6915.08
605.10504	6944.96
605.32483	6982.55
605.54468	6998.26
605.76453	6987.47
605.98438	6981.92
606.20422	7003.91
606.42401	7047.14
606.64386	7093.58
606.86371	7117.71
607.08356	7100.13
607.30334	7050.34
607.52319	6991.38
607.74304	6931.64
607.96289	6870.65
608.18268	6816.72
608.40253	6779.1
608.62238	6756.87
608.84222	6744.08
609.06201	6733.89
609.28186	6722.68
609.50171	6707.99
609.72156	6686.3
609.94135	6660.17
610.16119	6636.96
610.38104	6622.61
610.60089	6616.02
610.82068	6608.07
611.04053	6594.01
611.26038	6586.11
611.48022	6602.93
611.70001	6638.09
611.91986	6658.06
612.13971	6650.63
612.35956	6643.71
612.57941	6656.34
612.79919	6676.44
613.01904	6696.61
613.23889	6718.33
613.45874	6724.87
613.67853	6699.49
613.89838	6655.36
614.11823	6613.08
614.33807	6573.47
614.55786	6533.1
614.77771	6502.78
614.99756	6498.18
615.21741	6522.78
615.43719	6566.35
615.65704	6616.26
615.87689	6653.96
616.09674	6657.51
616.31653	6633.55
616.53638	6617.55
616.75623	6637.7
616.97607	6686.23
617.19586	6728.37
617.41571	6741.91
617.63556	6737.29
617.85541	6729
618.0752	6709
618.29504	6679.71
618.51489	6664.69
618.73474	6673.64
618.95459	6693.48
619.17438	6713.14
619.39423	6728.15
619.61407	6725.38
619.83392	6698.23
620.05371	6668.7
620.27356	6655.73
620.49341	6644.01
620.71326	6620.7
620.93304	6601.19
621.15289	6592.23
621.37274	6584.08
621.59259	6582.76
621.81238	6598.22
622.03223	6617.64
622.25208	6620.28
622.47192	6604.27
622.69171	6581.79
622.91156	6565.72
623.13141	6569.34
623.35126	6588.44
623.57104	6591.72
623.79089	6564.64
624.01074	6535.11
624.23059	6531.1
624.45038	6543.03
624.67023	6540.95
624.89008	6516.69
625.10992	6494.08
625.32977	6492.07
625.54956	6503.04
625.76941	6513.28
625.98926	6511.65
626.20911	6491.27
626.42889	6465.54
626.64874	6456.71
626.86859	6472.09
627.08844	6504
627.30823	6535.93
627.52808	6550.57
627.74792	6544.15
627.96777	6530.48
628.18756	6530.58
628.40741	6555.91
628.62726	6594.54
628.84711	6620.59
629.06689	6617.88
629.28674	6594.48
629.50659	6578.39
629.72644	6585.12
629.94623	6605.31
630.16608	6617.67
630.38593	6607.69
630.60577	6576.97
630.82556	6538.36
631.04541	6518.19
631.26526	6535.7
631.48511	6576.27
631.70496	6603.4
631.92474	6597.83
632.14459	6568.64
632.36444	6537.1
632.58429	6521.9
632.80408	6524.92
633.02393	6528.85
633.24377	6517.49
633.46362	6494.81
633.68341	6475.15
633.90326	6464.04
634.12311	6460.14
634.34296	6462.19
634.56274	6465.8
634.78259	6463.1
635.00244	6447.03
635.22229	6420.8
635.44208	6400.12
635.66193	6393.82
635.88177	6397.1
636.10162	6407.57
636.32141	6423.59
636.54126	6431.11
636.76111	6422.85
636.98096	6410.89
637.20074	6394.88
637.42059	6370.2
637.64044	6350.92
637.86029	6349.53
638.08014	6372.7
638.29993	6407.44
638.51978	6421.45
638.73962	6404.99
638.95947	6382.73
639.17926	6376.76
639.39911	6390.59
639.61896	6419.05
639.83881	6447.47
640.05859	6461.88
640.27844	6465.29
640.49829	6469.65
640.71814	6481.76
640.93793	6495.88
641.15778	6495.24
641.37762	6478.96
641.59747	6472.23
641.81726	6486.36
642.03711	6501.36
642.25696	6500.96
642.47681	6493.64
642.69659	6490.24
642.91644	6487.9
643.13629	6495.39
643.35614	6517.03
643.57593	6523.91
643.79578	6504.22
644.01563	6483.45
644.23547	6476.07
644.45532	6479.38
644.67511	6486.04
644.89496	6482.2
645.11481	6464.26
645.33466	6447.28
645.55444	6444.17
645.77429	6448.92
645.99414	6448.08
646.21399	6440
646.43378	6433.4
646.65363	6431.38
646.87347	6427.38
647.09332	6417.61
647.31311	6405.81
647.53296	6395.26
647.75281	6383.29
647.97266	6363.95
648.19244	6340.13
648.41229	6327.26
648.63214	6333.08
648.85199	6342.73
649.07178	6343.45
649.29163	6344.69
649.51147	6353.96
649.73132	6362.19
649.95117	6359.31
650.17096	6350
650.39081	6350.15
650.61066	6364.42
650.83051	6378.69
651.05029	6386.04
651.27014	6398.94
651.48999	6420.4
651.70984	6431.13
651.92963	6424.1
652.14948	6415.24
652.36932	6416.26
652.58917	6423.62
652.80896	6429.56
653.02881	6441.7
653.24866	6465.86
653.46851	6487.92
653.68829	6499.6
653.90814	6514.82
654.12799	6544.18
654.34784	6591.23
654.56763	6671.01
654.78748	6799.5
655.00732	6983.06
655.22717	7264.68
655.44696	7901.23
655.66681	9778.31
655.88666	13925.3
656.10651	18667.8
656.32635	19557.7
656.54614	15654.6
656.76599	10960.9
656.98584	8309.64
657.20569	7329.57
657.42548	7000.69
657.64532	6864.69
657.86517	6780.04
658.08502	6694.04
658.30481	6590.41
658.52466	6485.15
658.74451	6410.3
658.96436	6374.6
659.18414	6359.67
659.40399	6346.54
659.62384	6334.74
659.84369	6333.64
660.06348	6339.34
660.28333	6337.26
660.50317	6320.35
660.72302	6298.29
660.94281	6289.35
661.16266	6297.05
661.38251	6304.83
661.60236	6300.44
661.82214	6289.45
662.04199	6281.13
662.26184	6280.65
662.48169	6289.43
662.70154	6301.21
662.92133	6308.23
663.14117	6310.79
663.36102	6314.84
663.58087	6318.96
663.80066	6311.26
664.02051	6290.4
664.24036	6272.29
664.46021	6270.92
664.67999	6279.16
664.89984	6286.85
665.11969	6293.27
665.33954	6293.09
665.55933	6285.93
665.77917	6280.24
665.99902	6276.5
666.21887	6275.53
666.43866	6279.49
666.65851	6279.28
666.87836	6267.24
667.09821	6249.06
667.31799	6237.16
667.53784	6236.31
667.75769	6237.61
667.97754	6231.65
668.19733	6221.8
668.41718	6217.15
668.63702	6219.12
668.85687	6221.98
669.07672	6219.01
669.29651	6205.9
669.51636	6187.05
669.73621	6175.98
669.95605	6179.23
670.17584	6187.85
670.39569	6193.17
670.61554	6192.61
670.83539	6182.42
671.05518	6166.69
671.27502	6157.08
671.49487	6154.41
671.71472	6150.78
671.93451	6146.65
672.15436	6148.79
672.37421	6155.85
672.59406	6160.6
672.81384	6161.03
673.03369	6160.17
673.25354	6165.27
673.47339	6182.63
673.69318	6208.14
673.91302	6236.31
674.13287	6256.64
674.35272	6255.74
674.57251	6247.81
674.79236	6253.74
675.01221	6264.54
675.23206	6265.15
675.4519	6261.34
675.67169	6258.28
675.89154	6253.8
676.11139	6249.38
676.33124	6244.62
676.55103	6241.46
676.77087	6246.37
676.99072	6260.32
677.21057	6275.99
677.43036	6281.98
677.65021	6270.47
677.87006	6247.46
678.0899	6228.61
678.30969	6219.3
678.52954	6213.42
678.74939	6207.52
678.96924	6200.28
679.18903	6188.09
679.40887	6174.32
679.62872	6170.81
679.84857	6178.76
680.06836	6186.29
680.28821	6189.28
680.50806	6190.88
680.72791	6187.87
680.94769	6176.35
681.16754	6161.32
681.38739	6150.47
681.60724	6144.07
681.82709	6136.33
682.04688	6130.85
682.26672	6132.66
682.48657	6134.51
682.70642	6130.7
682.92621	6126.48
683.14606	6125.62
683.36591	6124.72
683.58575	6123.79
683.80554	6128.12
684.02539	6140.45
684.24524	6157.03
684.46509	6169.41
684.68488	6175.14
684.90472	6181.58
685.12457	6190.47
685.34442	6196.79
685.56421	6203
685.78406	6212.67
686.00391	6220.85
686.22375	6223.32
686.44354	6221.59
686.66339	6216.91
686.88324	6208.67
687.10309	6198.59
687.32288	6193.86
687.54272	6200.39
687.76257	6212.87
687.98242	6217.09
688.20227	6209.99
688.42206	6206.57
688.64191	6206.58
688.86176	6197.42
689.0816	6187.75
689.30139	6190.74
689.52124	6210.29
689.74109	6231.03
689.96094	6225.77
690.18073	6200.57
690.40057	6180.05
690.62042	6167.85
690.84027	6156.59
691.06006	6147.21
691.27991	6144.47
691.49976	6151.07
691.7196	6164.72
691.93939	6174.14
692.15924	6167.45
692.37909	6146.57
692.59894	6125.14
692.81873	6111.31
693.03857	6101.02
693.25842	6092.53
693.47827	6094.19
693.69812	6105.93
693.91791	6113.66
694.13776	6109.88
694.3576	6100.7
694.57745	6094.15
694.79724	6091.61
695.01709	6092.92
695.23694	6099.09
695.45679	6105.28
695.67657	6106.73
695.89642	6109.06
696.11627	6120.56
696.33612	6141.52
696.55591	6168.52
696.77576	6193.46
696.99561	6203.51
697.21545	6197.16
697.43524	6184.31
697.65509	6177.6
697.87494	6181.71
698.09479	6186.25
698.31458	6190.26
698.53442	6206.87
698.75427	6230.54
698.97412	6239.38
699.19391	6227.96
699.41376	6211.43
699.63361	6206.05
699.85345	6212.87
700.0733	6219.92
700.29309	6216.32
700.51294	6203.11
700.73279	6188.17
700.95264	6180.88
701.17242	6186.26
701.39227	6198.33
701.61212	6203.69
701.83197	6196.07
702.05176	6184.94
702.27161	6180.77
702.49146	6180.44
702.7113	6177.39
702.93109	6173.54
703.15094	6171.41
703.37079	6167.68
703.59064	6161.67
703.81042	6157.45
704.03027	6155.62
704.25012	6150.79
704.46997	6137.76
704.68976	6117.87
704.90961	6097.33
705.12946	6089.26
705.3493	6106.76
705.56909	6137.41
705.78894	6152.45
706.00879	6142.7
706.22864	6121.43
706.44849	6108.21
706.66827	6115.66
706.88812	6133.77
707.10797	6145.61
707.32782	6149.81
707.54761	6152.55
707.76746	6160.32
707.9873	6179.85
708.20715	6203.61
708.42694	6214.14
708.64679	6210.59
708.86664	6206.98
709.08649	6208.78
709.30627	6212.19
709.52612	6214.84
709.74597	6216.82
709.96582	6220.29
710.18561	6227.1
710.40546	6234.06
710.62531	6233.7
710.84515	6225.21
711.06494	6217.76
711.28479	6217.05
711.50464	6226.09
711.72449	6240.17
711.94427	6244.42
712.16412	6240.12
712.38397	6229.87
712.60382	6209.77
712.82367	6191.87
713.04346	6180.02
713.26331	6163.86
713.48315	6146.4
713.703	6141.72
713.92279	6152.97
714.14264	6172.28
714.36249	6186.95
714.58234	6185.52
714.80212	6175.42
715.02197	6181.63
715.24182	6227.62
715.46167	6298.24
715.68146	6326.53
715.90131	6293.33
716.12115	6262.09
716.341	6263.34
716.56079	6268.96
716.78064	6262.15
717.00049	6248.93
717.22034	6233.38
717.44012	6217.72
717.65997	6208.65
717.87982	6209.33
718.09967	6219.4
718.31946	6236.28
718.53931	6249.02
718.75916	6250.11
718.979	6252.97
719.19885	6272.7
719.41864	6302.93
719.63849	6329.39
719.85834	6343.16
720.07819	6344.56
720.29797	6331.59
720.51782	6318.57
720.73767	6325.31
720.95752	6336.67
721.17731	6345.96
721.39716	6355.53
721.617	6351.47
721.83685	6339.85
722.05664	6333.45
722.27649	6328.11
722.49634	6319.04
722.71619	6312.97
722.93597	6320.07
723.15582	6339.7
723.37567	6361.93
723.59552	6363.94
723.81531	6340.36
724.03516	6322.08
724.255	6312.98
724.47485	6294.19
724.69464	6275.51
724.91449	6272.64
725.13434	6282.67
725.35419	6285.73
725.57404	6278.89
725.79382	6290.13
726.01367	6312.39
726.23352	6304.23
726.45337	6270.25
726.67316	6243.87
726.89301	6230.11
727.11285	6221.36
727.3327	6217.96
727.55249	6221.6
727.77234	6225.42
727.99219	6224.49
728.21204	6226.04
728.43182	6237.93
728.65167	6254.18
728.87152	6260.58
729.09137	6258.16
729.31116	6263.06
729.53101	6280.19
729.75085	6298.4
729.9707	6307.38
730.19049	6320.53
730.41034	6353.17
730.63019	6396.12
730.85004	6422.91
731.06982	6429.16
731.28967	6429.45
731.50952	6414.22
731.72937	6388.11
731.94922	6350.09
732.16901	6338.61
732.38885	6370.33
732.6087	6407.86
732.82855	6417.64
733.04834	6396.98
733.26819	6362.24
733.48804	6342.95
733.70789	6353.45
733.92767	6382.66
734.14752	6404.79
734.36737	6405.07
734.58722	6396.66
734.80701	6397.5
735.02686	6405.6
735.2467	6410.4
735.46655	6406.51
735.68634	6397.17
735.90619	6382.46
736.12604	6361.77
736.34589	6344.77
736.56567	6332.05
736.78552	6322.38
737.00537	6335.2
737.22522	6364.36
737.44507	6367.64
737.66486	6343.46
737.8847	6313.21
738.10455	6291.21
738.3244	6288.18
738.54419	6285.1
738.76404	6281.82
738.98389	6283.63
739.20374	6281.77
739.42352	6278.45
739.64337	6273.9
739.86322	6265.05
740.08307	6257.5
740.30286	6256.3
740.52271	6259.25
740.74255	6263.74
740.9624	6272.9
741.18219	6290.46
741.40204	6309.72
741.62189	6324.62
741.84174	6339.48
742.06152	6355.38
742.28137	6362.33
742.50122	6351.96
742.72107	6336.11
742.94086	6330.4
743.16071	6331.76
743.38055	6340.27
743.6004	6358.85
743.82025	6376.08
744.04004	6382.52
744.25989	6381.91
744.47974	6376.78
744.69958	6363.41
744.91937	6359.5
745.13922	6366.09
745.35907	6369.5
745.57892	6364.27
745.79871	6355.68
746.01855	6354.47
746.2384	6355.31
746.45825	6358.11
746.67804	6370.67
746.89789	6377.09
747.11774	6365.05
747.33759	6361.66
747.55737	6368.29
747.77722	6355.75
747.99707	6331.23
748.21692	6310.76
748.43671	6285.46
748.65656	6263.29
748.8764	6255.32
749.09625	6247.48
749.31604	6234.65
749.53589	6231.58
749.75574	6234.97
749.97559	6222.34
750.19543	6207.59
750.41522	6217.43
750.63507	6230.01
750.85492	6219.94
751.07477	6205.64
751.29456	6202.41
751.5144	6205.16
751.73425	6222.22
751.9541	6258.81
752.17389	6292.82
752.39374	6312.12
752.61359	6320.01
752.83344	6318.73
753.05322	6321.38
753.27307	6330.71
753.49292	6346.62
753.71277	6374.29
753.93256	6379.33
754.1524	6359.04
754.37225	6347.02
754.5921	6340.16
754.81189	6330.67
755.03174	6335.17
755.25159	6341.36
755.47144	6324.07
755.69122	6311.5
755.91107	6330.38
756.13092	6364.02
756.35077	6382.65
756.57062	6364.69
756.79041	6321.72
757.01025	6303.35
757.2301	6312.89
757.44995	6321.36
757.66974	6326.16
757.88959	6323.19
758.10944	6313.39
758.32928	6307.73
758.54907	6302.82
758.76892	6300.46
758.98877	6304.73
759.20862	6315.17
759.42841	6329.19
759.64825	6332.52
759.8681	6306.21
760.08795	6267.07
760.30774	6260.87
760.52759	6267.15
760.74744	6254.39
760.96729	6237.19
761.18707	6235.02
761.40692	6243.54
761.62677	6253.21
761.84662	6257.58
762.06641	6252.66
762.28625	6239.1
762.5061	6231.47
762.72595	6248.17
762.9458	6280.72
763.16559	6293.99
763.38544	6274.32
763.60529	6264.33
763.82513	6300.02
764.04492	6347.56
764.26477	6375.17
764.48462	6412.65
764.70447	6418.64
764.92426	6386.89
765.1441	6374.9
765.36395	6369.26
765.5838	6339.63
765.80359	6336.97
766.02344	6434.54
766.24329	6649.5
766.46313	6758.41
766.68292	6577.73
766.90277	6411.1
767.12262	6380.85
767.34247	6382.92
767.56226	6383.34
767.7821	6375.16
768.00195	6378.62
768.2218	6380.92
768.44159	6372.27
768.66144	6361.66
768.88129	6357.08
769.10114	6377.87
769.32098	6449.69
769.54077	6598.23
769.76062	6702.31
769.98047	6604.57
770.20032	6437.34
770.4201	6357.85
770.63995	6334.38
770.8598	6316.66
771.07965	6294.86
771.29944	6289.54
771.51929	6301.33
771.73914	6308.1
771.95898	6315.98
772.17877	6313.66
772.39862	6305.85
772.61847	6318.83
772.83832	6332.76
773.05811	6336.65
773.27795	6317.1
773.4978	6297.48
773.71765	6302.13
773.93744	6326.85
774.15729	6349.83
774.37714	6363.61
774.59698	6362.61
774.81677	6374.72
775.03662	6413.28
775.25647	6448.53
775.47632	6466.94
775.69617	6473.39
775.91595	6462.19
776.1358	6446.04
776.35565	6451.98
776.5755	6491.45
776.79529	6649.63
777.01514	6962.99
777.23499	7099.86
777.45483	6889.91
777.67462	6619.87
777.89447	6474.76
778.11432	6416.37
778.33417	6385.38
778.55396	6381.28
778.7738	6387.83
778.99365	6371.48
779.2135	6345.29
779.43329	6346.79
779.65314	6369.49
779.87299	6355.41
780.09283	6346.36
780.31262	6377.37
780.53247	6355.74
780.75232	6319.89
780.97217	6317.2
781.19196	6329.11
781.4118	6320.71
781.63165	6313.1
781.8515	6350.47
782.07135	6356.92
782.29114	6325.18
782.51099	6298.38
782.73083	6296.35
782.95068	6307.36
783.17047	6316.55
783.39032	6320.59
783.61017	6326.2
783.83002	6338.99
784.0498	6337.85
784.26965	6320.3
784.4895	6308.03
784.70935	6294.82
784.92914	6280.73
785.14899	6283.77
785.36884	6306.51
785.58868	6329.14
785.80847	6343.79
786.02832	6358.84
786.24817	6367.82
786.46802	6395.55
786.68781	6428.4
786.90765	6411.73
787.1275	6425.19
787.34735	6442.51
787.5672	6444.53
787.78699	6447.07
788.00684	6419.86
788.22668	6405.92
788.44653	6458.83
788.66632	6480.71
788.88617	6433.89
789.10602	6438.35
789.32587	6423.1
789.54565	6447.06
789.7655	6462.78
789.98535	6474.41
790.2052	6479.88
790.42499	6461.28
790.64484	6468.47
790.86469	6440.03
791.08453	6411.7
791.30432	6417.53
791.52417	6418.5
791.74402	6399.9
791.96387	6383.99
792.18365	6368.64
792.4035	6357.41
792.62335	6352.12
792.8432	6341.38
793.06299	6333.43
793.28284	6342.72
793.50269	6337.44
793.72253	6319.6
793.94238	6323.02
794.16217	6328.75
794.38202	6325.22
794.60187	6357.39
794.82172	6383.35
795.0415	6360.88
795.26135	6293.72
795.4812	6239.13
795.70105	6235.6
795.92084	6250.87
796.14069	6261.35
796.36053	6262.06
796.58038	6264.6
796.80017	6270.43
797.02002	6286.98
797.23987	6299.48
797.45972	6296.97
797.6795	6302.52
797.89935	6329.71
798.1192	6341.54
798.33905	6330.36
798.55884	6327.16
798.77869	6344.58
798.99854	6340.27
799.21838	6333.11
799.43817	6331.26
799.65802	6350.41
799.87787	6370.58
800.09772	6352.39
800.31757	6352.82
800.53735	6365.01
800.7572	6349.56
800.97705	6343.13
801.1969	6308.45
801.41669	6300.62
801.63654	6336.88
801.85638	6364.96
802.07623	6285.83
802.29602	6266.8
802.51587	6298.01
802.73572	6279.59
802.95557	6236.54
803.17535	6259.27
803.3952	6275.29
803.61505	6296.54
803.8349	6303.01
804.05469	6299.06
804.27454	6312.05
804.49438	6292.48
804.71423	6269.92
804.93402	6261.09
805.15387	6265.3
805.37372	6269.5
805.59357	6231.32
805.81335	6206.93
806.0332	6215.3
806.25305	6223.19
806.4729	6221.35
806.69275	6226.24
806.91254	6243.98
807.13239	6256.8
807.35223	6258.51
807.57208	6248.16
807.79187	6264.96
808.01172	6309.58
808.23157	6311.75
808.45142	6322.23
808.6712	6385.4
808.89105	6404.23
809.1109	6424.24
809.33075	6429.74
809.55054	6458.65
809.77039	6396.84
809.99023	6393.57
810.21008	6422.68
810.42987	6467.24
810.64972	6384.94
810.86957	6407.82
811.08942	6484.75
811.3092	6438.05
811.52905	6375.11
811.7489	6400.21
811.96875	6472.25
812.18854	6463.28
812.40839	6471.94
812.62823	6481.25
812.84808	6426.25
813.06793	6414.87
813.28772	6432.69
813.50757	6442.37
813.72742	6404.89
813.94727	6420.41
814.16705	6426
814.3869	6374.42
814.60675	6345.57
814.8266	6379.22
815.04639	6376.76
815.26624	6330.09
815.48608	6345.4
815.70593	6381.41
815.92572	6360.22
816.14557	6379.68
816.36542	6375.94
816.58527	6332.57
816.80505	6292.13
817.0249	6357.02
817.24475	6422.44
817.4646	6373.03
817.68439	6317.72
817.90424	6334.08
818.12408	6314.42
818.34393	6346.03
818.56372	6391.35
818.78357	6402.56
819.00342	6362.89
819.22327	6355.99
819.44312	6435.08
819.6629	6454.37
819.88275	6454.82
820.1026	6481.28
820.32245	6488.16
820.54224	6454.3
820.76208	6473.23
820.98193	6441.16
821.20178	6458.05
821.42157	6489.92
821.64142	6528.31
821.86127	6480.87
822.08112	6500.85
822.3009	6514.99
822.52075	6480.55
822.7406	6517.94
822.96045	6597.37
823.18024	6527.13
823.40009	6601.93
823.61993	6558.19
823.83978	6464.74
824.05957	6441.02
824.27942	6441.54
824.49927	6577.02
824.71912	6347.12
824.9389	6300.76
825.15875	6281.62
825.3786	6311.24
825.59845	6271.7
825.8183	6230.62
826.03809	6246.89
826.25793	6240.28
826.47778	6191.84
826.69763	6242.38
826.91742	6225.38
827.13727	6219.63
827.35712	6226.6
827.57697	6185.59
827.79675	6183.44
828.0166	6186.18
828.23645	6171.06
828.4563	6178.9
828.67609	6192.26
828.89594	6189.35
829.11578	6197.79
829.33563	6219.7
829.55542	6249.84
829.77527	6248.09
829.99512	6243.74
830.21497	6264.06
830.43475	6295.49
830.6546	6286.84
830.87445	6263.02
831.0943	6283.59
831.31415	6286.56
831.53394	6319.52
831.75378	6352.43
831.97363	6346.88
832.19348	6386.93
832.41327	6367.32
832.63312	6306.16
832.85297	6307.94
833.07281	6275.32
833.2926	6274.4
833.51245	6314.68
833.7323	6321.95
833.95215	6326.2
834.17194	6369.52
834.39178	6272.83
834.61163	6247.1
834.83148	6330.92
835.05127	6370.55
835.27112	6344.02
835.49097	6288.93
835.71082	6233.7
835.9306	6263.47
836.15045	6298.57
836.3703	6210.86
836.59015	6242.21
836.80994	6227.9
837.02979	6240.96
837.24963	6175.73
837.46948	6175.8
837.68933	6275.09
837.90912	6282.4
838.12897	6228.84
838.34882	6217.1
838.56866	6256.59
838.78845	6162.27
839.0083	6138.02
839.22815	6121.59
839.448	6157.6
839.66779	6159.54
839.88763	6201.98
840.10748	6175.79
840.32733	6217.31
840.54712	6248.84
840.76697	6212.7
840.98682	6206.39
841.20667	6281.29
841.42645	6187.5
841.6463	6274.9
841.86615	6431.9
842.086	6331.38
842.30579	6405.22
842.52563	6400.94
842.74548	6251.53
842.96533	6280.24
843.18512	6266.67
843.40497	6183.45
843.62482	6315.37
843.84467	6304.68
844.06451	6309.18
844.2843	6311.76
844.50415	6454.06
844.724	7042.71
844.94385	6362.46
845.16364	6251.7
845.38348	6347.53
845.60333	6307.86
845.82318	6251.32
846.04297	6262.61
846.26282	6209.41
846.48267	6204.13
846.70251	6233.56
846.9223	6231.89
847.14215	6191.56
847.362	6213.84
847.58185	6186.36
847.80164	6193.75
848.02148	6156.56
848.24133	6204.23
848.46118	6155.94
848.68097	6154.83
848.90082	6116.15
849.12067	6111.77
849.34052	6161.33
849.5603	6141.29
849.78015	6175.25
850	6184.44
